##TITLE=Default
##JCAMP-DX=4.24
##DATA TYPE=INFRARED SPECTRUM
##DATE=19/9/2016
##SAMPLING PROCEDURE=ATR
##ORIGIN=Default
##XUNITS=1/CM
##YUNITS=ABSORBANCE
##RESOLUTION=4
##FIRSTX=599.84104
##LASTX=3998.2974
##DELTAX=0.96437467
##MAXY=0.0056743394
##MINY=-0.00011027817
##XFACTOR=1
##YFACTOR=5.2846404e-012
##NPOINTS=3525
##FIRSTY=0.00026145438
##XYDATA=(X++(Y..Y))
599.84+49474394+52106044+55377438+57822106+58962767+61550139+69580258+83334943
607.56+96574348+100855331+92391945+76902300+66395593+72146769+98641923
614.31+142565517+194339958+239572338+263890786+260403992+236555908+210429386
621.06+198806689+206100270+222589744+232063028+221783373+189257362+141660720
627.81+90930563+49541935+26573424+24333163+36810386+52278266+60268998+57388222
635.52+47747717+37150382+27813150+18541365+9010741+1795672+0+4030778+11702133
644.20+21344115+33547033+49142395+65959132+79322141+86609333+90474673+96528109
651.92+106879667+116799257+118402704+108351226+91836396+78992544+76742700
658.67+83369793+89844732+87186691+72994070+53282150+38370061+37640858+57239042
666.38+98347440+150638164+186627474+182523362+147058452+105196211+72730923
673.13+54444532+49422835+54037601+63800070+74707871+83533535+87421994+84599386
680.85+75769371+64396692+55044447+50284697+49070470+47620709+42204219+31634211
688.56+17876101+4798158-4185410-7776236-7201863-5150886-3968193-4227717
696.28-4742259-4099090-2131482-119750+552884+13988+0+1213313+4584818+7976006
705.92+8556569+4958077-1754499-8878258-13686764-14964473-13167689-10037138
713.64-7529302-6781869-7358406-7395525-4873007+537849+6493289+9065042+5575319
722.32-3028530-12788284-19384713-20867677-18296546-14460582-11923690-11563472
730.03-12517068-13029430-11595595-7798837-2658685+2001186+4449973+3849165
737.75+684303-3568648-6963410-7921737-5747734-1014837+4757536+9892826+13464304
746.43+15643418+17141043+18408233+19111586+18432338+15939152+12053854+8154149
754.14+5690954+5306201+6622362+8688489+10715410+12536470+14440866+16639385
761.86+18965377+20845298+21460475+20109946+16725262+12282124+8398076+6415840
769.57+6403824+7171044+7531504+7387195+7904488+10215435+14423028+19419827
777.29+23838444+26683825+27392189+25757715+22118799+17745050+14356638+13080450
785.00+13494887+14159239+14064071+13787617+14941989+18825735+25199015+32386185
792.72+38191665+40639976+38260630+30534766+18757631+6776744+0+2047971+15060170
801.40+35454460+56505757+71693588+77592221+75008660+67703884+60036989+54841285
809.11+52866242+53332260+55312937+58278948+61862741+65186867+67089379+66761274
816.83+64678091+62178273+60511890+59948509+60027302+60444338+61532978+63567763
824.54+65803607+66460898+63985538+58490564+51667617+45423583+40268014+35401907
832.26+29952953+24519057+21104206+21829738+27313174+36041150+44995508+51201015
839.97+53093405+51123308+47516198+44830665+44277195+44890195+44317117+40965160
847.69+35648156+31429179+31522645+36854800+45225992+52607897+55657134+53584046
855.40+48633839+44762177+45522221+52203214+63375120+75627207+85434180+90558962
863.12+90534790+86107045+78492408+69152725+59730775+51991135+47349802+46286589
870.83+48110237+51085776+52978155+51998190+47670549+41255301+35565842+33772593
878.55+37781672+46917543+57828913+65677662+66432992+58928027+45743031+31780990
886.26+21618566+17272930+17660356+20056630+22203084+23565607+24795849+26766026
893.98+29544783+32480450+34847752+36426110+37465419+38112677+38235558+37373384
901.69+35266459+32213808+29332776+27863078+28524959+31039156+34381618+37204736
909.41+38582206+38239512+36460910+33790456+30791762+27959780+25779603+24780363
917.12+25545124+27995525+31323156+34023658+34763997+33205997+30295531+27674276
924.84+26679917+27831803+30605694+34021637+36834938+38075181+37276721+34709153
932.55+31210594+27761183+24899914+22665920+20725970+18820364+16934400+15293449
940.27+14176755+14123223+15515004+18484458+22634868+27001092+30725603+33293766
947.98+34676066+34921455+33794694+30972422+26557709+21378870+16861784+14387944
955.70+14500990+16843270+20376229+23948542+26663492+27957478+27747134+26507772
963.41+25121429+24582796+25332847+27077623+28895933+29900840+29911001+29480139
971.13+29475601+30451111+32240097+34225138+35720166+36460519+36558892+36265216
978.84+35868625+35579847+35663518+36207847+36840390+36595717+34474123+30176839
986.56+24600887+19672066+17408826+18874151+23637050+29816381+34971957+37050175
994.27+35448031+31224205+26716389+24158963+24615016+27476982+31029992+33485443
1001.99+34000351+32706996+30159183+26778437+22868645+18821852+15539561+13991731
1009.70+14668196+17118261+20239647+23125960+25742873+28737183+32598968+36931394
1017.42+40337782+41156589+38623219+33433840+27274568+21708628+17451218+14433547
1025.13+12488904+11965055+13258804+16301651+19922765+22539576+22980920+21207562
1032.85+18184856+15054476+12580703+10974143+10254340+10685820+12606645+16007121
1040.56+20054488+23269077+24401307+23421691+21579734+20492361+20820999+21962994
1048.28+22815917+22791780+22375658+22410317+23243645+24341573+24915224+24582391
1055.99+23710574+22838763+22113958+21070676+19111180+16382520+13987102+13130095
1063.71+14183796+16178190+17741475+18319980+18550619+19486798+21451920+23867880
1071.42+25838005+26975169+27396934+27230692+26358848+24531526+21915383+19421812
1079.14+18207082+19192253+22475397+27066972+31188377+33045970+31728132+27676025
1086.85+22619655+18558198+17127907+18725506+22591699+27095079+30648050+32373320
1094.57+32349176+31153858+29243129+26896341+24422221+22379358+21296878+21199244
1102.28+21571981+21738932+21371816+20573529+19961436+20182279+21863231+25415971
1110.00+30561429+36329582+41500228+45039111+46465706+45696581+42986651+38992805
1117.71+34685522+30981192+28448155+27086292+26665254+26822412+27160874+27112237
1125.43+26186493+24403281+22335921+20655685+19568330+18897450+18545046+18937370
1133.14+20726084+24028879+28076614+31663917+33761634+34109926+33032196+31101825
1140.86+28926495+26863923+25203195+24203979+24062242+24885782+26395325+27679491
1148.57+27665153+25455615+21158851+15867735+11159949+8328693+7888155+9671727
1156.29+12949577+16741992+20083816+22181236+22828364+22456342+22015726+22442363
1164.00+24157655+26833374+29514083+31185417+31269083+29809175+27359479+24689364
1171.72+22372114+20887869+20300275+20388829+20599872+20325855+19238509+17587738
1179.43+16093780+15599306+16569741+18941441+22048164+24963906+26757647+26856006
1187.15+25097283+21809882+17782787+13907769+10998041+9425821+9068559+9416746
1194.86+10112762+11009646+12210284+13778381+15640465+17531989+19266771+20761506
1202.58+22025982+23040587+23570125+23198102+21576653+18798942+15639177+13185014
1210.29+12264335+12921182+14430497+15822259+16493831+16244325+15088446+13178106
1218.01+10924877+9171401+8794546+10073534+12386251+14708831+16350462+17232714
1225.72+17698520+17919356+17772734+17057779+15833298+14354075+12928770+11728846
1233.44+10847378+10313747+10132845+10285075+10574479+10682619+10134292+8684566
1241.15+6524540+4295992+2758197+2307893+2749123+3650823+4743579+6193958+8207730
1249.83+10721249+13185854+15038120+15827269+15499376+14167138+12109851+9900749
1257.54+8240378+7858629+9054317+11499274+14306846+16433499+17203061+16444019
1265.26+14523856+12148121+10134978+9101662+9214698+10131164+11297489+12223777
1272.97+12767939+12954468+12851948+12318305+11235971+9815624+8601053+8258494
1280.69+9125958+11041817+13388845+15427286+16593686+16662639+15678233+13890368
1288.40+11593040+9075324+6670358+4809211+4025792+4716860+6833464+9704556
1296.12+12350389+13869486+13918839+12738504+10950705+9295216+8384384+8590498
1303.83+9879274+11883330+13995218+15558437+16097722+15480772+14006461+12370508
1311.55+11371460+11597177+13081965+15355557+17688006+19427677+20128672+19692973
1319.26+18399868+16827519+15632446+15010601+14702308+14158856+12968722+11293599
1326.98+9750781+9075093+9663323+11265651+13191351+14715360+15533895+15960495
1334.69+16651660+18239425+20812032+23683602+25374399+24482990+20926165+16154458
1342.41+11990509+9502184+8831397+9483311+10698613+11713069+12134751+12007737
1350.12+11650467+11307897+10931034+10260236+9016272+7292245+5666228+4941588
1357.84+5681648+8057905+11683476+15573766+18303068+18572899+16388134+13228495
1365.55+10705844+9662729+10172579+11765114+13881889+16116301+18277282+20100251
1373.27+21051128+20517434+18411010+15486461+12699190+10622361+9363697+8849676
1380.98+8957813+9639120+10976896+12985867+15553402+18155313+19934182+19998237
1388.70+18420965+16304799+15026452+15536335+18236231+22851975+28212778+32682073
1396.41+34818982+34103887+30850469+25852806+20492884+16127860+13531637+12630563
1404.13+12591732+12288351+11166835+9707310+8923849+9399402+10795958+12168042
1411.84+12579925+11933612+11174626+11704080+14683101+20552914+28265529+34861567
1419.56+37356270+35744365+32324281+28767135+25504134+22432351+19703646+17803025
1427.27+17293852+18372078+20616401+23095972+24953340+26144362+27266800+28938063
1434.99+31065067+32633499+32281040+29801914+26426179+23217174+20527642+18367335
1442.70+16755805+15864494+15810965+16585412+17977188+19667855+21373255+22951298
1450.42+24524471+26313270+28631307+31978450+37212410+45338251+55847063+63259038
1458.13+60671132+50574136+40174545+32721271+28267412+25817813+23868057+21144211
1465.85+17817833+15329349+14947573+16946831+20984330+26619376+33151555+39228493
1473.56+42796598+42806759+39935268+35593733+31012322+27131851+24358901+22565972
1481.28+21282634+20146303+19416642+19872653+22494282+27928527+36215149+45698450
1488.99+52609549+53212786+48326518+42078109+37574749+36002049+37497061+41550261
1496.71+46476049+49578844+49201812+46222270+42630238+40023393+39332759+41293400
1504.42+46910219+57625067+73057524+85501754+85404050+76838631+67504444+60083024
1512.14+54965980+52192100+51692515+53329953+56800627+61903787+69002532+78700417
1519.85+90400127+100590972+103367198+96403524+84335930+73010399+64559030
1526.61+58069216+52187683+46811380+42822361+41082938+41730199+43813415+45445789
1534.32+45357932+44397701+44549991+47495870+54627664+66833771+81630510+89976454
1542.04+86068703+75154779+63306004+53228349+45724921+40746004+37605066+35508032
1549.75+33822671+32495063+32172008+33691444+37626831+44218658+53634217+66286263
1557.47+81264306+90875348+83790167+65812182+49754492+39002227+32401743+28923026
1565.18+28271691+30530963+35407062+41518435+46057014+46273019+42779016+38907814
1572.90+37521320+39584820+44142895+47951342+46986191+40958449+33176841+26121144
1580.61+20295815+15534019+11835570+9445265+8524651+8902220+9887247+10823296
1588.33+11279258+11431486+11872755+13171354+15273437+17370673+18409694+17807435
1596.04+16039158+14197432+13217977+13296724+13948663+14512420+14698950+14792395
1603.76+15429649+17130045+19795658+22627947+24450982+24274954+22119471+19155640
1611.47+17039486+17123135+20215002+26702511+35880807+44766070+48750983+46506636
1619.19+41263061+36539265+33785624+32752034+32193770+31062201+29430838+28245405
1626.90+28049769+28496024+28819784+28844644+29212500+30844579+34485788+40205011
1634.62+46689191+50536951+48777776+43387033+38275976+34718626+32200257+30211174
1642.33+28770929+28565492+30413158+34642381+39807836+42827034+42807792+43062995
1650.05+47258558+57159672+71297622+81015307+74857629+58072818+43648710+35205340
1657.76+31314917+30237262+30889331+32398931+33746852+33551202+31385683+28504824
1665.48+26917621+28285049+33606905+42629117+52387519+58014837+57760309+54633447
1673.19+52178194+51546281+51757396+51267626+49822116+48587374+49038644+52043470
1680.91+57959963+66396567+75554743+81046362+78482451+69795295+60113986+51762066
1688.62+44758735+39123249+35541370+34997791+38163820+45397653+56827805+71705930
1696.34+87459564+100072564+106041551+103687742+93874948+81077307+70232796
1703.09+63232801+59296947+56576867+53611808+50009693+46363635+43447954+41684037
1710.80+41331546+42713915+46218403+51982522+59418530+66281653+68321345+62939155
1718.52+53425322+44755540+38355580+33445774+28996853+24700067+20908151+18493107
1726.23+18130918+20081227+24246201+30395876+38192563+47386772+57253537+65459647
1733.95+68151315+64205426+57416722+51682360+48060738+45948758+44228896+42283639
1741.66+40318826+38991125+38903279+40344407+43118566+46593656+49534671+50500565
1749.38+48726697+45281642+42424818+41376425+41675727+42092645+41323594+38613925
1757.09+34076533+29054296+25178889+23317378+23107059+23592479+24107302+24808317
1764.81+26293295+28885681+32340568+36315037+40647444+45396653+50293173+53910709
1772.52+54009096+50034492+43967395+37998763+33103697+29448604+27018616+25999822
1780.24+26524459+28367160+30802807+32998415+34267929+34336894+33416010+32230531
1787.95+31618381+32255754+34221090+36823518+38534133+37951340+35423097+32458823
1795.67+30278649+29176519+28794682+28579445+28050619+26968115+25728832+25175527
1803.38+25817749+27493839+29410059+30640315+30738677+29857036+28710812+27838992
1811.10+27236673+26408969+25091302+23411084+21926883+21177625+21565043+23069558
1818.81+25245356+27519208+29597124+31694695+34199036+37095486+39575485+40634370
1826.53+40061362+38758177+37837249+37719999+37588046+36382911+33844923+30719011
1834.24+27999906+26471523+26329791+27197414+28437435+29785276+31593741+34455795
1841.96+38636166+43478352+47365117+48806392+47895151+46131155+44612236+43593230
1849.67+42554629+40673135+37287243+32259939+26306887+20888300+17527723+17165543
1857.39+19742927+24348815+29557648+33747568+35752130+35311462+33430136+31901657
1865.10+32553732+36356672+42855148+49648202+53329402+52026012+47032116+41092702
1872.82+36447401+34193631+34115585+34997989+35115955+33161135+29099368+24244061
1880.53+20417910+19085647+20644003+24402293+29116231+33619731+37280604+39780204
1888.25+40809685+40217072+38727675+38090973+40090741+44967300+51044940+55265354
1895.96+55265712+51075423+45170035+40431397+38353939+38638526+40030632+41398255
1903.68+42662990+44515840+47858627+53220876+60446122+68755405+76751743+82787594
1911.39+85671025+85215383+82469969+79121589+76660736+75587400+75087689+73808471
1919.11+71083049+67534145+64093238+61382845+59584260+58873869+59433020+61129385
1926.82+63208135+64688891+65159843+65189615+65939989+68072781+71004725+73157255
1934.54+73088982+70682237+67402973+65756223+67972346+74674299+84171555+92586185
1942.25+95553315+90777467+80216216+68548415+60372243+58063912+61544488+68785155
1949.97+76889336+83091886+85646809+84210524+79719699+74101517+69782826+68900774
1957.68+72367103+79334158+87454079+94108576+97644616+97890173+95531749+91378650
1965.40+85995033+80121486+74571919+70096332+66949457+64753683+62504055+59181014
1973.11+54323956+48918266+45620280+47433980+55947768+69947939+86024552
1979.86+100078897+108862970+110550545+104935167+94298576+82972016+75382740
1986.61+73691712+76300259+79085390+77987515+71384081+60271466+47386183+36021993
1994.33+29078944+28510921+34959719+47113524+61504318+73377699+78506242+75305126
2002.04+65510622+53599885+45101781+44367018+52875572+68595854+87011027
2008.79+103002673+112964207+115922261+113867418+110488358+109100696+111126681
2015.54+115232434+118470146+118387119+114787140+109769860+106307585+106425649
2022.29+110178013+115917073+121210134+124506961+126057472+127357843+129315604
2029.04+131121321+130719402+126598878+119054652+109563944+99941921+91855842
2035.79+87153774+87820989+94583356+105524740+116178172+121510489+118788410
2042.55+108934807+96086064+84818145+78410295+77513445+80352537+83691846
2049.30+84628706+81942171+76515080+70514773+65995315+64181937+65005827+67766049
2057.01+71526449+75154652+77302380+76675187+72606415+65895600+58646155+53117687
2064.73+50471393+50481554+52158115+54873794+58550274+62638674+65692939+65835456
2072.44+61968199+54964174+47161894+41433276+39968375+43408955+50554839+58735587
2080.16+65005343+67520459+66202150+62467228+58100172+54845950+54165022+57297391
2087.87+64601342+74631728+84295589+90224049+90660813+86321679+79619566+72913091
2095.59+67609170+64006537+62046149+61747502+63022336+65351110+67709363+69057819
2103.30+68974841+67926134+66985281+67034659+68285064+70295342+72290954+73698315
2111.02+74434050+74792291+74920120+74444933+72464686+68273581+62180768+55789429
2118.73+51113962+49325423+50109952+52021755+53781668+55071075+56556567+59198857
2126.45+63669614+69851496+77014367+83917990+89424711+92857539+94083816+93299584
2134.16+91058998+88377171+86901631+88005234+91751826+96332238+99181766+98917319
2141.88+96465712+94176007+93705600+94877950+95947337+95476918+93648192+92054868
2149.59+92736831+96871035+104340318+114095925+124495297+133787215+140548410
2156.34+143679149+143355664+141545486+141369210+145137865+151850904+156719290
2163.09+153902817+140031510+117058252+91669008+71724159+61753725+60955097
2169.84+64406336+66406706+63652162+56579422+48433970+43308078+44259172+52306904
2177.56+65923913+81734768+95601845+104198969+106215019+102331164+94382243
2184.31+84467900+74515541+66466361+62099118+62633773+67996886+76659761+86157089
2192.02+94007860+98568765+99706849+98540050+96721072+95333653+94063946+91514425
2199.74+86792818+80835952+76624834+77154681+82822720+89834676+91968052+84628117
2207.45+68591950+50289692+37915793+36235358+44007846+55638366+65427369+70472003
2215.17+71158686+69301091+66718031+64703672+64360895+66268122+69896050+73779068
2222.88+76490529+77824412+78653336+79717595+80433769+78924055+73776667+65379549
2230.60+56360796+50014055+48235362+50436268+54171328+56975272+57872602+57667093
2238.31+58088981+60094094+62947256+64359342+61840167+54488237+43706437+32563449
2246.03+23905971+19193168+18184300+20041456+24299373+30796732+39078324+47997862
2253.74+56109637+62673232+67717685+71659416+74532586+75905653+75386347+72925659
2261.46+69151255+64842719+60696163+57348752+55305221+54692914+55271627+56624775
2269.17+58855310+62678970+68983267+77626586+86888617+93876369+96161855+93121931
2276.89+86360499+78658298+72339280+67922731+64609338+61438231+58487816+57189284
2284.60+59243372+65248383+74136422+83687330+91915392+98153265+103141038
2291.35+107844647+112710389+117390009+121275252+124434662+127775700+132559220
2298.10+139796164+149683460+161633155+174679145+187805761+200418948+212641163
2304.86+225140262+238780924+254030431+270614498+287629518+303817240+317869206
2311.61+328943425+337137044+343870603+351632828+363070723+379607935+401001350
2318.36+425561170+451512252+478136629+505804520+534793093+564280226+592184311
2325.11+616544724+636686892+653718611+669168735+683564772+695829416+704360982
2331.86+709563482+714746552+724001550+739025017+757348339+774014421+784823873
2338.61+788800195+787727294+783914956+777269513+764464322+740045973+700665397
2345.36+650096030+599286415+560249404+540959846+544865146+572624501+622737163
2352.11+690931841+769110237+847011729+916105939+972321382+1015170335+1045787644
2358.86+1065166816+1073741823+1070903695+1056127614+1030769332+998576685
2364.65+963016687+924901236+882184193+833472443+780279731+726414871+674738414
2371.40+624866221+574407704+521559922+466992424+413381646+363461165+318723887
2378.15+278954962+243145023+210292079+179985115+152545214+128607262+108442844
2384.90+91676493+77281507+64438008+53135475+44172069+38482982+36356639+37033226
2392.61+39170108+41400153+42772658+42836727+41518848+39171909+36447723+34056834
2400.33+32577396+32254360+33014212+34587479+36508688+38184927+38988939+38553169
2408.04+37068751+35368757+34545902+35389076+37707223+40368460+41829156+40932730
2415.76+37659665+33289120+29545978+27792244+28360967+30531919+33109625+35221898
2423.47+36555098+37378690+38163091+39349325+41099126+43329218+45681890+47524943
2431.19+48221219+47398243+45060939+41523085+37358154+33232632+30097066+28789194
2438.90+29676409+32278584+35365951+37541983+38154877+37415297+36102408+34750342
2446.62+33520796+32325569+31233253+30464342+30141317+30107379+30029344+29750418
2454.33+29265700+28849586+28639259+28776814+29262247+30085766+31007291+31576033
2462.05+31204007+29695227+27627916+26163302+26531128+29069505+32926033+36322125
2469.76+37616136+36146441+32555078+28243621+24554618+22183681+21258079+21571994
2477.48+23135234+25991971+29946350+34268414+37870372+39928855+40541762+40649930
2485.19+41140332+42096280+42478882+41048305+37442035+32797127+29152020+28094050
2492.91+29882801+33411065+36919873+38890127+38988495+37695187+36058889+34966529
2500.62+34834586+35765964+37579383+39985784+42544168+44759585+46504593+47940878
2508.34+49318384+50289131+50078748+48045241+44497471+40538227+37353396+35168298
2516.05+33502656+31895841+30636948+30495213+31705830+33734753+35631430+36974425
2523.77+38072430+39626180+41831714+44076519+45502959+45640542+44626464+43083143
2531.48+41441842+39844674+38325946+37101252+36827206+38150617+41233283+45526522
2539.20+50045429+53809799+56201961+56942427+56192880+54531711+52757849+51371211
2546.91+50303152+49107688+47343749+45114283+42914285+41135777+39675830+38215905
2554.63+36623707+35183438+34370394+34277655+34709217+35258383+35591946+35425704
2562.34+34646957+33397822+32251607+31972673+33051009+35109362+37133466+38040364
2570.06+37575203+36340725+35312068+34984125+34969784+34450745+32951716+30874541
2577.77+29414779+29797315+32379873+36212027+39725836+41563836+41608299+40844196
2585.49+40619139+41535870+43369011+45417817+47255942+48795152+49947224+50236735
2593.20+48850142+45272957+39794583+33444383+27672822+23778101+22504638+23646541
2600.92+26194602+28732946+29953327+29542112+28224464+27279205+27686230+29303472
2608.63+31038338+31611976+30671577+29035431+28080364+28531490+29884162+30839972
2616.35+30286662+28106667+25137915+22370145+20386327+19259893+18971209+19613350
2624.06+21348012+24042981+27017308+29393983+30550676+30443244+29684147+28925058
2631.78+28450151+27931156+26951604+25305738+23434534+22210073+22416204+24239110
2639.49+27272239+30672962+33554429+35196283+35275043+33967104+31840915+29440399
2647.21+27074248+24752259+22479329+20426925+19011446+18526803+18850501+19463246
2654.92+19835938+19782409+19381046+18881702+18372566+17745854+17119149+16654112
2662.64+16708363+17311294+18095490+18482873+18135404+17396022+17019165+17705379
2670.35+19528179+21796846+23409066+23580900+22180070+19730849+17291498+15768303
2678.07+15675586+16768398+18336427+19571348+20066518+19973795+19832083+20072499
2685.78+20866520+22067186+23302162+24106011+24032880+22837813+20751109+18522390
2693.50+17204927+17494326+19297522+21752348+23741811+24472177+23830720+22287809
2701.21+20509766+19089393+18443083+18600213+19237449+19806102+19742776+18758427
2708.93+17063744+15246626+14022293+13860997+14821516+16394403+17888935+18820107
2716.64+19236887+19722255+20726934+22260740+23814171+24735611+24936846+24726532
2724.36+24530917+24354906+23840834+22596777+20730549+18864360+17688964+17493369
2732.07+17875849+18081967+17577735+16377865+15109427+14595419+15301204+17207225
2739.79+19720770+22156007+23934802+24910133+25228956+25214618+25077795+24916477
2747.50+24603277+24035314+23163602+22056736+20876398+19774461+18814610+17928254
2755.22+17061506+16238855+15617063+15303902+15333656+15578958+15824261+15981385
2762.93+16236488+16805118+17922433+19529669+21239816+22440478+22627012+21676926
2770.65+19991987+18351175+17366848+17068376+16789501+15717014+13620707+11166860
2778.36+9506631+9516790+11133656+13539239+15802825+17576581+19046634+20516712
2786.08+21947625+23050310+23511203+23344986+22963207+22733304+22782658+22881003
2793.79+22788279+22597571+22710615+23475260+24808235+25842364+25676147+23951935
2801.51+21243026+18808551+17863412+18711294+20651680+22543117+23317557+22597730
2809.22+20687418+18399928+16597491+15877723+16206306+17063969+17965730+18666644
2816.94+19362663+20239955+21254432+22063155+22435855+22279441+21789884+21050474
2824.65+19997532+18660460+17352805+16593841+16868539+18152415+19940912+21484489
2832.37+22307912+22455249+22357625+22514762+23156922+24171432+25283943+26273984
2840.08+27048457+27524069+27622420+27225923+26334583+25051303+23611267+22195750
2847.80+21084005+20540566+20643809+21173273+21594959+21208289+19591956+16902798
2855.51+13846326+11387585+10187815+10305739+11168237+11991554+12280933+12060859
2863.23+11777103+11934220+12742849+13977671+15183118+15947689+16075420+15634890
2870.94+14728982+13401798+11687650+9767804+8009647+6858911+6491904+6565740
2878.66+6453443+5665193+4259788+2619302+1204154+288610+0+505112+1989816+4326812
2888.30+7016549+9402674+11093276+12103009+12642486+12853760+12820103+12673778
2896.02+12654817+12812206+12807942+12191352+10908568+9581718+9180681+10116914
2903.73+11876113+13253253+13229392+11662475+9351027+7348234+6423095+6761707
2911.45+8011405+9550130+10731292+10986647+10071265+8078250+5517092+3063771
2919.16+1403985+870744+1336680+2331600+3257959+3714112+3768624+3832932+4298885
2927.84+5352619+6592501+7401350+7210950+5933138+4038185+2574299+2619013+4730719
2936.52+8551993+12971075+16582083+18321827+18013826+16397828+14688783+13939913
2944.24+14405925+15518577+16268728+15901950+14418256+12532903+11098256+10540459
2951.95+10795814+11526329+12550766+13888731+15652915+17666980+19426345+20250020
2959.67+19726454+17885068+15215827+12326233+9608186+7169432+5019741+3203174
2967.38+2033179+1646871+2034444+2755085+3377771+3833925+4270491+4991151+5995915
2976.06+6853743+7104189+6531723+5469441+4573708+4471480+5358681+7049209+8911214
2984.74+10249123+10538767+9799731+8551266+7562432+7381827+8029040+9219982
2992.45+10494217+11557832+12229571+12396757+11990807+10869670+9043174+6731787
3000.17+4601696+3588418+4456017+7263335+11084742+14602602+16944872+18189832
3007.88+19003699+19886159+20837219+21558027+21955494+22284374+22912110+23843607
3015.60+24662428+24824740+24105171+22841792+22004658+22583400+24921001+28263073
3023.31+31066309+31948901+30616802+28045129+25684212+24538391+24676207+25519535
3031.03+26549049+27519784+28519931+29524984+30314468+30481693+29825768+28434907
3038.74+26647215+24712579+22724096+20613183+18639496+17425187+17773645+20052323
3046.46+23746949+27681821+30440945+31254932+30383416+28737767+27356725+26857609
3054.17+27250204+28171952+29177006+29785196+29560446+28203889+25720475+22600233
3061.89+19661375+17565236+16664467+16733688+17429967+18552464+19915033+21057159
3069.60+21307651+20191282+17957958+15420964+13550272+12634852+12326871+12013994
3077.32+11363114+10579978+9889922+9258653+8387366+6845018+4724711+2496701
3085.03+827117+0+7826+671976+1943482+3998708+7033644+10916139+15195621+19274466
3094.68+22677414+25208403+26842858+27624818+27652250+27111333+26247059+25240703
3102.39+24106980+22684216+20634382+17795860+14359783+11075704+8977173+8906627
3110.11+10908149+14325453+18213205+21856180+24926084+27192576+28356710+28006873
3117.82+26128383+23211279+20122808+17779091+16650366+16697388+17582132+18809816
3125.54+20277578+22107911+24374330+26846589+28946550+30140111+30334134+29719704
3133.25+28541819+27001381+25402181+24194959+23972521+24916136+26594693+28160588
3140.97+28967064+28911204+28497668+28216423+28155662+27776427+26275198+23186598
3148.68+19059500+15314719+13549182+14669037+18316774+23282586+28106612+31852945
3156.40+34144143+35185880+35384821+35216255+34876186+34212719+32770169+30298687
3164.11+27180532+24263370+22380053+21638295+21376671+20737805+19339581+17701325
3171.83+16714663+16972342+18395989+20407562+22257508+23588159+24208416+24113363
3179.54+23469577+22526940+21780280+21606839+22050707+22827732+23452884+23509708
3187.26+22890425+21835108+20765107+20268320+20761174+22214288+24265157+26374868
3194.97+28425842+30354371+32135949+33442269+33783302+33173741+32211387+31856632
3202.69+32756250+34694686+36956576+38757904+39853615+40469097+40952276+41185532
3210.40+40855241+39946701+38817658+38085554+37627866+36783065+34845549+31981994
3218.12+29422318+28523703+29717273+32028032+33922352+34229092+32928627+30834402
3225.83+29039116+28238499+28506017+29386003+30138602+30121940+29223317+27751438
3233.55+26284486+25390803+25379039+26244294+27428033+28357007+28531433+27823911
3241.26+26562740+25193797+24158041+23847410+24756745+27327052+31357596+35770549
3248.98+38767533+38799869+35568650+30387398+25642534+23470094+24619501+28066849
3256.69+31925936+34565078+35503935+35075658+34039778+33023508+32413944+32235581
3264.41+32307114+32074854+31019409+28925220+26272530+24070671+23250501+24145132
3272.12+26445953+29383809+32184573+34294513+35576383+36382947+37120918+37971604
3279.84+38430269+37428644+33918158+27781541+20293173+13648087+9932867+9935799
3287.55+12863271+16981311+20550837+22910356+24412522+25772631+27367949+28914297
3295.27+30004991+30767406+31828722+33757360+36249567+38335123+38911405+37767659
3302.98+35634088+33652475+32405901+31762040+31186783+30533130+30212675+30700697
3310.70+32227515+34410972+36692496+38763364+40368738+41390983+41594842+41088123
3318.41+40404990+40207007+40802902+41761442+42234837+41551696+39653237+37039383
3326.13+34342307+32042216+30418373+29475634+29047385+29040520+29298245+29663770
3333.84+29955794+29748036+28790606+27304015+25935040+25330424+25617536+26375014
3341.56+27240291+28247674+29730355+31668755+33621907+34761671+34583302+33424910
3349.27+32193032+31627569+31792203+31917639+30871983+28366188+25311710+23707589
3356.99+25214689+29862576+35853381+40580283+42009285+40047101+36159143+32506565
3364.70+30833705+31463836+33426785+35149675+35314320+33749201+31233515+28810997
3372.42+27241106+26788366+27256774+28396455+29761546+30964962+31673497+31798930
3380.13+31468666+30736607+29597862+27944654+25801511+23707418+22416887+22645195
3387.85+24828424+28839329+34212667+40022500+44955495+47448079+46304206+41362296
3395.56+33887271+26069943+20017095+16899219+16681691+18624700+22027776+26455026
3403.28+31294117+35638565+38547406+39648046+39298149+38262191+37049833+35705186
3410.99+33948944+31741938+29378194+27352598+25954211+24996811+24010025+22611693
3418.71+20885127+19668121+19950315+22133481+25487719+28817592+31226397+32616049
3426.42+33476502+34322269+35364051+36533259+37643677+38695306+39707745+40808401
3434.14+42119807+43739982+45551321+46980425+47360739+46128638+43396916+40013507
3441.85+37286885+36451862+38062121+41598347+45526792+47872379+47135272+43193018
3449.57+37467192+32050466+28775313+28464657+30795061+34428980+37543616+38820667
3457.28+38073835+36400837+35458013+36470416+39462617+43243949+46050162+46489288
3465.00+44394645+40673041+36863399+34479884+34272112+36009745+38801015+41464965
3472.71+43129242+43465429+42953789+42574469+43371326+45662959+48841743+51412901
3480.43+51915768+49972926+46726447+43886871+42125537+40535765+37343565+31574011
3488.14+24212463+17968596+15468042+17656010+23376568+30454812+36774110+41060099
3495.86+43033121+43163477+42470508+42027481+42466585+43557491+44119123+43043882
3503.57+40444551+37967815+37323891+38997893+42014715+44713088+45867740+45017917
3511.29+42511637+39015516+35411735+32567635+31198538+31608181+33208566+34955988
3519.00+35826282+35432294+34322861+33551560+34279728+37100365+41768648+47309577
3526.72+52355836+55554518+55782931+52663642+47000802+40539538+35000033+31318018
3534.43+29463840+28472081+27519539+26361213+25384191+25274434+26374915+28700392
3542.15+32015756+35826189+39504486+42482134+44435602+45663771+46681216+47796693
3549.86+48966097+49807142+50084542+49837520+49497381+49564035+50194329+50996168
3557.58+51494139+51163792+49902208+47969191+46144034+45720584+48218157+54886896
3565.29+65644481+77384036+83966895+81111287+71043904+58992512+48947433+42931955
3573.01+41704797+44579620+49449314+53289981+53974224+51497052+47755466+45229467
3580.72+45585276+49244428+55869152+64999367+76351548+89009635+100227813
3587.47+105277388+101366602+91434014+80674000+72351936+67339689+65161143
3594.22+64840544+65475865+66787698+68830000+71416541+73831563+74952327+73955112
3601.94+71065525+67303424+63914054+61828728+61738531+64094449+68622157+73905123
3609.65+77722451+78539280+76483000+73402119+71963691+73971810+79235518+85999989
3617.37+92304071+96666605+98194724+96873568+93644800+89822808+86662963+85268434
3625.08+86438394+90261212+95486743+98731295+96203721+88502792+81101671+77348900
3632.80+76900780+77678382+77539142+75164201+70480215+64448400+58510154+53900641
3640.51+50948012+49103172+47625952+46418317+46548684+50305939+61107163+82201012
3648.23+112069951+136336587+137664296+119760384+97564243+79262101+66777950
3654.98+59609147+56298487+54742711+53035017+50317680+46791747+42893495+39113042
3662.69+35847309+33605870+32721849+33552937+36515724+42311255+51371459+62579735
3670.41+73157090+81602903+90088808+101650589+116897804+131112642+136070961
3677.16+129283673+116350406+102379429+88842336+76052697+65250426+58140551
3683.91+55878889+58523872+65262195+74918193+86154236+96661098+102784597
3690.66+102375574+97366334+91219705+86157205+82987656+81725560+81988377
3697.41+83168107+84563605+85522720+85457013+83802608+80383091+75948814+72024645
3705.13+70194014+71741275+77632490+88177522+102313893+115854258+121164887
3711.88+112887635+95292987+77506010+64571008+57265080+54969119+57104302
3718.63+63102324+71919760+81841361+90778503+97048720+99611662+98535678+95252851
3726.34+92431112+92924452+98125707+107476630+119423594+132172005+144480773
3733.09+155122761+162001590+160983685+149478249+130835605+111956844+97437224
3739.84+88323790+84006734+83529151+86537910+92866659+101275358+108954082
3746.60+114082796+117249651+120078152+122995056+123380651+117153550+104697783
3753.35+90704116+78938793+70562774+65119111+61151309+56683719+50319509+42382574
3761.06+34568917+28128010+23495612+20872299+20865434+24033596+29852834+36319357
3768.78+40791728+41544498+38930410+34728635+30419271+26404128+23055550+21098597
3776.49+21655194+25244786+30686799+35217676+36656475+35875322+35662634+37983557
3784.21+42372713+45874996+45064348+38887233+29334304+19949068+14013899+13179064
3791.92+17145546+24145176+32096057+39459621+45814199+51737939+58544453+67336985
3799.64+77944580+87876838+92572726+89564705+81579811+73080886+65960399+59492487
3807.35+52191814+44034096+36827902+32518406+31952899+34724574+39775181+45571068
3815.07+50519416+53629927+55446493+57743484+61800377+67323283+71552250+71128660
3822.78+65449596+56986634+48034408+39676150+32519322+27117320+23881379+22923949
3830.50+24063644+26982059+31287356+36577895+42917587+50904648+61407231+73754616
3838.21+84613176+89049001+84996635+74800894+62336684+50653688+41461977+35559514
3845.93+33122000+33850204+37288443+43167506+51517319+62804354+77142593+91321506
3853.64+96777764+88497890+73300653+59174846+49153833+43623283+42410766+45369053
3861.36+51831992+60187607+67215495+69390258+65878109+59473873+53893609+51352619
3869.07+52061380+54402401+55807245+54854343+52004518+48169616+43982011+39863228
3876.79+36156304+33287520+31531209+30951007+31326367+32328981+33728549+35593692
3884.50+37772528+39897508+41552054+42760639+43910423+45378810+47146193+48467591
3892.22+48122535+45660131+42060758+38922218+37528435+38418410+41376571+45266065
3899.93+48425428+49536091+48049002+43969207+37836180+30924448+24860986+20258070
3907.65+16708794+13438930+10159396+7511956+6613486+8551506+13620173+21094903
3915.36+29212241+35502437+37744989+35361292+30169743+25223514+23001876+24391490
3923.08+28637901+33658816+37111787+37835137+36402164+34376240+33100142+33122683
3930.79+34272340+35490627+35356343+32860001+28045911+21708243+14905620+8617953
3938.51+3594630+545705+0+2140091+6234881+10716915+14047841+15879650+16942268
3947.19+18289081+20522777+23520924+26695594+29223548+30492173+30222086+28604412
3954.90+26173336+23404225+20434314+17101930+13539402+10550233+9256259+10186523
3962.62+12679688+15266023+16701023+16577957+15180996+13063842+10736065+8609218
3970.33+7065409+6393652+6794790+8210050+10624792+13794128+17174279+19946990
3978.05+21352695+21175724+19901171+18558040+17881294+18042414+18585718+18830135
3985.76+18511074+17726529+16868496+16186858+15671815+15063681+13784306+11392766
3993.48+7884260+3988874+965653+0-894085+0
##END=
