##TITLE=Default
##JCAMP-DX=4.24
##DATA TYPE=INFRARED SPECTRUM
##DATE=19/9/2016
##SAMPLING PROCEDURE=ATR
##ORIGIN=Default
##XUNITS=1/CM
##YUNITS=ABSORBANCE
##RESOLUTION=4
##FIRSTX=599.84104
##LASTX=3998.2974
##DELTAX=0.96437467
##MAXY=0.25774249
##MINY=0
##XFACTOR=1
##YFACTOR=2.400414e-010
##NPOINTS=3525
##FIRSTY=0.020582449
##XYDATA=(X++(Y..Y))
599.84+85745410+83700975+80673690+76756586+72222099+67461332+62768734+58126628
607.56+53216816+47677540+41390105+34607696+27818242+21540274+16152000+11829193
615.27+8548852+6113169+4215542+2581993+1152027+155671+0+1014210+3235702+6404341
624.91+10132545+14134668+18286179+22567743+26971008+31447992+35888475+40121960
632.63+43980994+47415666+50551466+53601941+56687331+59746248+62636842+65312001
640.34+67875505+70478087+73185464+75947957+78665701+81259685+83695473+85980777
648.06+88180702+90434532+92918896+95752406+98914492+102245623+105553902
654.81+108761995+111982124+115450353+119339832+123635771+128164182+132743869
661.56+137278643+141723452+146032388+150195442+154368491+159000711+164750031
668.31+171806112+179219884+185899652+191784688+197411343+203232921+209434413
675.06+215986441+222779872+229710340+236682120+243585879+250343274+256972138
681.81+263570476+270222076+276918558+283575218+290105798+296481091+302721521
688.56+308840714+314801485+320515746+325908788+330992404+335868558+340617049
695.31+345074366+348620510+350132128+348208037+341643749+329932804+313538457
702.06+293772124+272391218+251158538+231591380+214912609+202067246+193572457
708.82+189119346+187130291+184740076+178599140+166332774+147844181+125482560
715.57+102862355+83178019+68155661+58047483+52245587+49904355+50240214+52540234
723.28+56079907+60104439+63914556+67022700+69301277+71018045+72708833+74946594
731.00+78139625+82442641+87778028+93917947+100569656+107455467+114374636
737.75+121226420+127980037+134621511+141107504+147370514+153341047+158964582
744.50+164196517+169002508+173372963+177348016+181013131+184447551+187626212
751.25+190325790+192090963+192316351+190427194+186082439+179299204+170446383
758.00+160133035+149063181+137905517+127197644+117300005+108394947+100529414
764.75+93676730+87795193+82862440+78872582+75815166+73656469+72343243+71827085
772.46+72083271+73106105+74879868+77357612+80456752+84081509+88153031+92630080
780.18+97509540+102796731+108460943+114387502+120361480+126106058+131361233
786.93+135967723+139913940+143322629+146401128+149374328+152418902+155601691
793.68+158834701+161867930+164336238+165854141+166122766+164996541+162495254
800.43+158761651+154013455+148511079+142546614+136428741+130443744+124808368
807.18+119649630+115021522+110955285+107498610+104730724+102731597+101540074
813.93+101121905+101382894+102210348+103526778+105308704+107572995+110339066
820.68+113590823+117260152+121239208+125409130+129671912+133956956+138211109
827.43+142379812+146398909+150200440+153710129+156841487+159489354+161545080
834.18+162915114+163535749+163362538+162360126+160505035+157796704+154266188
840.93+149984969+145093203+139807353+134360506+128863655+123190730+117046597
847.69+110232331+102930951+95750117+89448385+84539944+81086233+78810885
854.44+77393749+76705853+76831940+77951787+80211368+83680443+88371210+94288387
862.15+101475102+110053432+120246892+132390478+146913935+164282371+184858380
868.90+208643236+234971777+262302854+288263308+310001655+324765104+330543646
875.65+326620320+313873178+294679386+272350805+250238224+230821899+215123610
882.40+202641819+191818707+180864269+168627001+155153181+141658876+129940909
889.15+121553406+117195793+116604210+118904250+123147555+128699577+135329659
895.90+143082545+152102059+162535138+174528535+188253365+203899431+221631889
902.65+241524115+263507002+287330811+312536496+338400946+363866332+387512258
909.41+407654935+422632241+431210880+432954854+428389708+418861656+406153840
916.16+392023613+377826218+364326853+351732826+339877955+328471097+317306124
922.91+306372638+295858889+286092800+277463350+270344710+265028024+261660353
929.66+260217967+260516079+262247947+265011015+268324275+271629000+274316706
936.41+275788004+275528582+273180595+268594436+261847951+253243238+243259972
943.16+232488477+221548426+211016721+201389500+193061063+186318038+181334320
949.91+178180692+176850543+177305539+179522263+183514294+189320725+196976118
956.66+206477632+217757573+230650658+244850071+259868750+275038418+289563396
963.41+302626946+313503352+321652074+326781038+328880188+328224432+325336682
970.16+320909628+315701360+310445354+305786658+302256902+300269989+300133574
976.91+302054592+306140530+312395642+320705207+330837832+342467982+355253487
983.66+368944175+383475143+398973837+415663145+433717258+453158802+473861542
990.41+495639992+518356836+541986281+566616197+592423226+619641399+648531816
997.16+679339681+712238191+747262295+784216325+822545620+861183253+898431531
1003.91+931988434+959186992+977463217+984937282+980926581+966175176+942693755
1010.66+913288965+880999559+848642302+818544790+792454191+771566615+756646235
1017.42+748184207+746544431+752045860+764949095+785352715+813037463+847287338
1024.17+886714907+929138458+971592800+1010551126+1042403506+1064094613
1029.95+1073741823+1070989557+1056979791+1033963454+1004736454+972087247
1035.74+938396753+905431324+874332874+845731676+819910059+796927989+776702904
1042.49+759060862+743781922+730631370+719370332+709748139+701523993+694508557
1049.24+688600335+683783248+680081569+677519694+676102465+675812129+676599209
1055.99+678380149+681055874+684558906+688882539+694072897+700179644+707207619
1062.74+715082580+723642317+732650067+741845291+751023755+760102894+769124798
1069.49+778182520+787331559+796540502+805703632+814683137+823358214+831649280
1076.24+839527406+846995636+854062472+860725804+866984020+872843698+878316881
1082.99+883398108+888057332+892249981+895924967+899014935+901430307+903085106
1089.74+903926814+903939788+903099011+901327196+898498388+894475707+889139838
1096.49+882395867+874174949+864457529+853289980+840787269+827116259+812484974
1103.24+797146564+781401050+765600226+750162802+735572116+722315039+710711271
1110.00+700675829+691540634+682077607+670780564+656341657+638123350+616405860
1116.75+592276102+567234240+542716063+519768726+498956574+480433031+464059480
1123.50+449518735+436406702+424325931+412963893+402128396+391736350+381776549
1130.25+372271651+363253379+354742186+346737701+339218692+332149094+325489982
1137.00+319202963+313254390+307616981+302270125+297202835+292410889+287899627
1143.75+283676932+279741407+276067694+272610538+269317545+266154637+263111165
1150.50+260199297+257438495+254845209+252420448+250141274+247965723+245847562
1157.25+243753627+241674405+239612611+237573288+235557602+233563860+231586693
1164.00+229613064+227623420+225599679+223530358+221413532+219250846+217044629
1170.75+214802422+212529564+210233334+207919055+205599407+203293881+201019735
1177.50+198781656+196570550+194376531+192197845+190039536+187905468+185791280
1184.25+183689586+181597032+179516118+177455736+175426486+173436561+171486336
1191.00+169567428+167674625+165815792+164006591+162263705+160588343+158975104
1197.75+157421259+155925937+154480106+153058408+151628997+150169665+148668414
1204.50+147118216+145512210+143851421+142154409+140454883+138782873+137154069
1211.25+135564390+133995134+132420616+130819235+129185426+127530402+125875727
1218.01+124237604+122618764+121011182+119395151+117744325+116033804+114251436
1224.76+112405229+110511881+108583267+106628044+104662182+102714580+100814133
1231.51+98978161+97205368+95482245+93781214+92051216+90219263+88203150+85927003
1239.22+83320223+80320919+76899814+73097841+69041343+64906169+60851227+56970858
1246.94+53287542+49779160+46405363+43132364+39950634+36878921+33946571+31171913
1254.65+28551347+26067135+23695920+21404707+19154633+16921540+14718912+12594470
1262.37+10596246+8745906+7046834+5508651+4155987+3016310+2101059+1403157+899852
1271.05+554829+325828+182728+118481+141810+255881+456162+739751+1134288+1666341
1280.69+2340677+3132541+3996631+4882604+5738796+6513340+7169703+7701215+8128963
1289.37+8485974+8813436+9171983+9645545+10321338+11263554+12511672+14098716
1297.08+16057047+18403081+21112037+24116543+27316625+30587705+33791141+36803097
1304.80+39546393+41989316+44106021+45845964+47147577+47982119+48373056+48383644
1312.51+48101521+47636021+47099858+46560937+46016273+45426867+44791586+44185465
1320.23+43713246+43433979+43341984+43404810+43590934+43867322+44195576+44546240
1327.94+44915589+45311042+45730783+46166974+46628306+47148287+47758368+48468166
1335.66+49282005+50228303+51361934+52717818+54267555+55949641+57739245+59666614
1343.37+61776441+64105855+66690640+69566379+72751317+76235624+79993639+84006473
1351.09+88264537+92756858+97460064+102325843+107257090+112089735+116630903
1357.84+120746569+124432877+127810806+131063789+134358861+137780679+141346735
1364.59+145149367+149520272+155092640+162687864+172968265+186059579+201616517
1371.34+219293586+238797735+258946791+276545907+287190857+288218301+280238523
1378.09+265866690+248192725+230210187+214449403+202435365+194447408+189886701
1384.84+187919746+187916114+189530113+192488259+196388275+200804606+205534660
1391.59+210657013+216420160+223044462+230476655+238296460+246034012+253583454
1398.34+261115064+268663590+276030540+283107464+290165827+297792726+306541147
1405.09+316473138+327040212+337642173+348245252+359325458+371388040+384585926
1411.84+398645478+413066507+427418785+441570305+455845421+471037763+487885803
1418.60+505678539+521618417+533221812+540440428+544524504+546559403+547222577
1425.35+546939566+545871399+543858847+540576564+535920195+530398529+525043044
1432.10+520702278+517506996+514970635+512324645+508952690+505040693+501593469
1438.85+499291078+497923543+496961187+496084032+495252256+494487183+493617788
1445.60+492212292+489744527+485873221+480643288+474403075+467543081+460372141
1452.35+453130153+445894280+438251241+428680168+414259667+393604571+372410363
1459.10+357565469+348690379+342456622+336391374+328925877+319199921+307664842
1465.85+296329839+287191013+280656832+275957599+272154951+268529658+264688274
1472.60+260905522+258352555+258102228+260029748+263313413+267218955+271256938
1479.35+275032738+278095081+279933536+280183429+278820488+276087869+272235962
1486.10+267325511+261175093+253496220+244509498+235685373+228853516+224440848
1492.85+221614368+219282226+216478234+212447436+206960409+200742373+195039984
1499.60+190520357+187101689+184513291+182546724+180973324+179348974+176649970
1506.35+171021981+161834827+152880137+147092982+143368582+140267115+137224946
1513.10+134109310+130812500+127115632+122848504+118240688+113931706+110321738
1519.85+107009657+103089287+98186192+93139379+88932103+85486819+82112979
1526.61+78456042+74821026+71713382+69256597+67134215+64844852+61974837+58580748
1534.32+55358660+53017094+51646745+50874587+50134185+48656156+45718305+41845141
1542.04+38678954+36555660+34912761+33550839+32496999+31671178+30878523+29961827
1549.75+28917905+27890108+27021726+26340422+25805068+25400753+25133281+24901402
1557.47+24335531+22942429+21115478+19971837+19588869+19503749+19445375+19329263
1565.18+19156249+18953043+18721808+18407923+17938901+17355376+16859785+16617656
1572.90+16618371+16716023+16708640+16443852+16003757+15662187+15537633+15547320
1580.61+15585183+15596057+15552056+15436813+15253641+15034791+14818081+14622596
1588.33+14442683+14277413+14141118+14047415+13986916+13941123+13907549+13906366
1596.04+13956706+14057764+14199282+14369532+14542375+14670960+14705836+14638253
1603.76+14508467+14367609+14233820+14101234+13973335+13877684+13852159+13921456
1611.47+14093880+14368739+14734115+15161794+15613115+16059285+16499177+16944381
1619.19+17390163+17827084+18256027+18682742+19104291+19509536+19898587+20287762
1626.90+20689103+21105103+21543638+22031198+22591001+23222859+23908112+24632708
1634.62+25403326+26228021+27040593+27727159+28250685+28639224+28923566+29129215
1642.33+29287788+29437228+29601900+29780920+29976869+30261653+30742633+31424853
1650.05+32241369+33156698+34186109+35298196+36297546+37046499+37657942+38252353
1657.76+38859863+39453172+39965773+40290000+40289119+39877755+39141916+38287066
1665.48+37433792+36508997+35242279+33230554+30265956+26844784+23867591+21652710
1673.19+19870617+18117713+16287244+14591556+13276169+12371701+11751235+11286050
1680.91+10896835+10498403+9925951+8996697+7843849+6889784+6272551+5818051
1688.62+5351755+4841711+4376328+4057816+3904945+3848307+3776138+3588586+3263641
1697.30+2870651+2458686+1976801+1397188+834595+425601+191301+72860+14057+0
1706.94+46639+162526+330702+529369+753127+949311+1196786+1489388+1780345
1715.62+1976975+1990225+1865712+1775684+1800224+1887602+1959794+1964236+1890829
1724.30+1777867+1694858+1702920+1828728+2074806+2433696+2892665+3431307+4007537
1732.98+4548747+4965673+5245497+5467658+5695649+5926614+6122032+6233032+6230459
1741.66+6113910+5903462+5626007+5309747+4976148+4626762+4233587+3756807+3190148
1750.34+2610408+2143737+1858213+1729468+1682879+1635989+1531266+1361392+1176578
1759.02+1028420+923466+831258+737668+666013+647363+678857+735423+688420+651276
1768.66+642583+672186+717326+723301+639900+479394+310718+190736+136707+141077
1778.31+184702+248665+320940+400758+501023+645684+867444+1196943+1645501
1786.99+2204107+2862343+3638699+4573196+5690064+6909325+8021647+8837762+9333028
1795.67+9582025+9642552+9516700+9164463+8533305+7618622+6521615+5424376+4478544
1804.35+3730811+3147545+2673552+2276149+1944345+1679738+1473109+1304768+1150440
1813.02+996685+850935+744307+719272+792446+970792+1205943+1439038+1634787
1821.70+1784442+1887997+1939874+1936906+1891118+1823812+1745373+1649690+1531302
1830.38+1400154+1280381+1183988+1107697+1042222+981993+924829+878696+861380
1839.06+893181+980312+1107610+1239497+1332745+1347731+1285773+1193483+1124557
1847.74+1100708+1114507+1144236+1168731+1177074+1171454+1164639+1173423+1212432
1856.42+1286242+1387548+1502712+1624096+1756286+1908013+2079279+2259609+2440061
1865.10+2618116+2785919+2909629+2932253+2824110+2634236+2453887+2337945+2294355
1873.78+2310123+2365280+2435926+2492500+2510886+2479415+2399839+2282640+2152479
1882.46+2051238+2030925+2120976+2301006+2511146+2683341+2778857+2802268+2798628
1891.14+2821606+2896504+3003580+3092987+3115416+3057022+2949450+2841670+2766730
1899.82+2730834+2729615+2755330+2795221+2839581+2889175+2960030+3072863+3224848
1908.50+3386323+3516940+3594453+3622562+3619811+3605392+3595665+3606768+3649274
1917.18+3723291+3812033+3887905+3919615+3886230+3795934+3701074+3674468+3747609
1925.86+3877331+3983617+4015658+3988942+3968113+4014328+4141977+4313237+4468804
1934.54+4570842+4622834+4672757+4784498+4998633+5303733+5631338+5880331+5961666
1943.21+5848289+5595429+5299228+5047466+4888517+4831070+4850363+4904647+4949664
1951.89+4950101+4881771+4732151+4511619+4262262+4054781+3964310+4032098+4238108
1960.57+4495331+4680671+4697585+4529966+4248450+3973531+3814840+3800532+3873215
1969.25+3933270+3919181+3824101+3687345+3565304+3534368+3681708+4075491+4709541
1977.93+5463930+6148410+6603652+6784485+6754509+6615217+6449139+6297688+6177093
1986.61+6093012+6043365+6008539+5951498+5831835+5622127+5329382+5007748+4739086
1995.29+4592361+4593650+4711594+4871005+4990699+5012332+4924269+4753627+4554619
2003.97+4400571+4366526+4492170+4750323+5043424+5250046+5301718+5230432+5150668
2012.65+5185368+5387518+5711994+6033791+6221192+6217676+6079206+5936837+5914622
2021.33+6059878+6333671+6645807+6910511+7093805+7211561+7306783+7406469+7511057
2030.01+7605192+7678203+7736188+7793304+7861526+7949455+8069618+8245540+8496618
2038.69+8813728+9143188+9398704+9503761+9438629+9264778+9104680+9100688+9344182
2047.37+9813552+10344703+10703525+10718129+10388759+9886018+9442483+9219592
2055.08+9240008+9413430+9620079+9778379+9863052+9879756+9842876+9769624+9679395
2063.76+9594293+9530871+9502297+9519455+9591375+9715668+9867728+10003135
2071.48+10079958+10078382+10012781+9917902+9837080+9810589+9867701+10012341
2079.19+10210769+10404635+10539711+10592577+10573147+10505923+10418130+10340363
2086.91+10311045+10356511+10467508+10594945+10678947+10696981+10678549+10682322
2094.62+10750758+10891254+11077587+11273733+11444079+11561406+11611334+11600069
2102.34+11558977+11533130+11560413+11649535+11776764+11903124+12000525+12066024
2110.05+12112794+12156952+12203070+12244723+12269500+12261397+12204306+12090940
2117.77+11932093+11753789+11582265+11432200+11303267+11191649+11093532+11007176
2125.48+10929315+10859511+10799393+10749721+10702666+10652897+10616617+10632306
2133.20+10742798+10968327+11297068+11697855+12130038+12539231+12851419+12998535
2140.91+12957700+12780306+12563884+12399065+12327708+12341310+12404405+12478051
2148.63+12530922+12539521+12496566+12411308+12307792+12226690+12231607+12421056
2156.34+12910266+13778561+14986924+16342144+17551310+18369889+18710539+18651686
2164.06+18357010+17983887+17634740+17343345+17095720+16858058+16604322+16342466
2171.77+16113125+15973776+15962066+16080054+16301724+16596493+16935417+17288876
2179.49+17624185+17908966+18126958+18273021+18346705+18349431+18284358+18168614
2187.20+18032948+17918875+17870625+17916194+18046421+18210321+18341648+18402903
2194.92+18412618+18426362+18491652+18607830+18733490+18824934+18864943+18877595
2202.63+18897334+18946604+19015706+19072059+19088422+19067733+19044436+19065595
2210.35+19157795+19311891+19490835+19653224+19768102+19820315+19805830+19740020
2218.06+19657329+19605481+19623483+19715899+19846784+19970585+20065077+20145079
2225.78+20237501+20348561+20446981+20493743+20475448+20422610+20379369+20373833
2233.49+20396955+20424762+20439714+20444314+20453383+20485334+20550073+20647391
2241.21+20763559+20872645+20949809+20985135+20990497+20988124+20990551+20989271
2248.92+20963916+20906326+20840461+20818174+20890319+21072588+21332976+21602647
2256.64+21809797+21909625+21899185+21811388+21697022+21603583+21556998+21562593
2264.35+21605764+21665385+21718471+21756632+21791420+21860734+22001830+22227355
2272.07+22506392+22777610+22984122+23103464+23150988+23162989+23176733+23217396
2279.78+23290531+23386115+23483118+23560938+23609555+23630814+23628977+23601314
2287.50+23535847+23422230+23258735+23058887+22840560+22618463+22396301+22166558
2295.21+21917816+21645622+21357927+21080088+20845377+20682810+20597690+20563681
2302.93+20527067+20429359+20231871+19933345+19568172+19192342+18854951+18576826
2310.64+18343490+18117691+17866101+17577563+17261533+16927249+16567672+16160595
2318.36+15695108+15188705+14680961+14193316+13695118+13115274+12392440+11536524
2326.07+10629199+9786430+9095344+8578854+8199998+7902258+7652475+7456015
2333.79+7327308+7263528+7235120+7193347+7087543+6888622+6608692+6310723+6089741
2342.47+6072824+6400869+7174703+8348263+9689582+10893250+11718915+12037932
2350.18+11804913+11032328+9794299+8230256+6528704+4871254+3400351+2212656
2357.90+1365364+848947+594821+513976+543477+613559+852608+1361635+2222734
2366.58+3434481+4897953+6466221+8021430+9507445+10922587+12283537+13599362
2374.29+14866068+16074671+17219202+18303551+19335958+20324689+21270648+22165947
2382.01+22999529+23759132+24429755+24995085+25441313+25769974+26001913+26172143
2389.72+26312341+26438609+26547788+26633670+26693959+26732901+26753871+26757309
2397.44+26749200+26741415+26747138+26767897+26793989+26814965+26836919+26879138
2405.15+26957745+27068499+27185905+27285233+27360702+27422773+27486591+27549757
2412.87+27593089+27592937+27536111+27431336+27310438+27214063+27177951+27212668
2420.58+27294133+27375168+27417848+27416824+27398796+27395484+27413970+27434089
2428.30+27439823+27445449+27489002+27601446+27773748+27957732+28097357+28161107
2436.01+28152674+28101063+28041383+28001114+27996385+28032002+28102946+28197777
2443.73+28302430+28400328+28471948+28503978+28492929+28454175+28414222+28395102
2451.44+28404556+28434735+28473747+28514615+28559414+28607376+28653267+28687266
2459.16+28704254+28707713+28704298+28696523+28681547+28662423+28653667+28675343
2466.87+28732804+28808051+28862575+28867562+28820835+28749126+28687018+28656767
2474.59+28660117+28690855+28746028+28831755+28951536+29096314+29242960+29367030
2482.30+29460216+29535727+29617136+29715034+29821126+29912708+29974593+30010059
2490.02+30047492+30123581+30266290+30479130+30738315+31008028+31260303+31493055
2497.73+31722996+31968931+32233160+32501367+32756275+32989131+33201448+33400123
2505.45+33589630+33776751+33965971+34156746+34333974+34475200+34562578+34596965
2513.16+34591393+34560203+34506017+34427315+34330327+34233897+34159249+34111643
2520.88+34078377+34038213+33977913+33896704+33803355+33705521+33602763+33488742
2528.59+33355687+33196160+33006560+32789300+32551392+32311546+32096987+31940073
2536.31+31859048+31842316+31846685+31821425+31738323+31605044+31453630+31318510
2544.02+31220674+31166452+31151359+31163703+31188945+31215278+31242378+31282052
2551.74+31347305+31435738+31526476+31590757+31609559+31587469+31546463+31516280
2559.45+31517151+31551258+31598815+31629208+31619254+31563705+31485086+31418934
2567.17+31393562+31411378+31449752+31476207+31467783+31428417+31380085+31345421
2574.88+31332078+31332181+31334036+31333265+31339493+31365294+31414053+31477033
2582.60+31535972+31580256+31611747+31643348+31684249+31730617+31767367+31779614
2590.31+31764302+31728974+31688508+31651758+31621024+31590289+31555730+31519090
2598.03+31491311+31489450+31523133+31587876+31666734+31742531+31809471+31874994
2605.74+31948507+32027493+32095763+32135481+32140845+32125969+32117546+32138011
2613.46+32192171+32264392+32330379+32369668+32376456+32357315+32323506+32282474
2621.17+32240353+32204247+32183789+32185653+32209403+32248254+32292141+32333731
2628.89+32368648+32395248+32412218+32419338+32417483+32410048+32400753+32394850
2636.60+32397921+32415439+32447187+32488787+32530385+32564657+32587649+32599917
2644.32+32605621+32608693+32609248+32604333+32591316+32573701+32558387+32555769
2652.03+32566617+32582935+32590935+32582078+32559210+32529882+32497381+32459075
2659.75+32412451+32363643+32322604+32299736+32295802+32304132+32318699+32341584
2667.46+32381440+32446363+32537784+32646840+32756671+32848654+32911523+32945592
2675.18+32961375+32977267+33008604+33066224+33150238+33251564+33353445+33437916
2682.89+33496428+33532379+33560989+33595519+33640126+33686711+33721021+33734519
2690.61+33726321+33703992+33679359+33664588+33669869+33700128+33751536+33816317
2698.32+33884936+33954098+34022065+34088942+34153192+34214699+34274573+34333787
2706.04+34393114+34452006+34512105+34584708+34683734+34825425+35019759+35270819
2713.75+35582906+35964504+36431897+37007662+37717048+38574947+39577393+40695699
2721.47+41870189+43024861+44066536+44901835+45443993+45634376+45457428+44954826
2729.18+44215891+43353736+42472484+41641515+40892116+40232997+39668003+39208820
2736.90+38868123+38646937+38531384+38490890+38492376+38509575+38526228+38535733
2744.61+38540405+38548044+38569639+38613881+38687575+38792819+38926763+39082484
2752.33+39246140+39404864+39546114+39664945+39762450+39848303+39940321+40061935
2760.04+40229327+40439862+40669130+40886323+41070088+41227125+41380545+41553579
2767.76+41749313+41951348+42136777+42297775+42447773+42613978+42818880+43066666
2775.47+43345243+43637205+43934288+44242782+44575048+44937161+45317777+45694727
2783.19+46051890+46390689+46730998+47098543+47510357+47969455+48466808+48998474
2790.90+49564031+50167835+50808490+51476060+52158287+52846761+53544376+54260789
2798.62+55004896+55777182+56571351+57378427+58193656+59018157+59851834+60691696
2806.33+61534188+62382430+63251363+64167223+65157987+66244862+67437424+68731965
2814.05+70116843+71580622+73121594+74758235+76527745+78478972+80655594+83086959
2821.76+85784364+88754515+92009663+95574927+99487630+103790941+108521018
2828.51+113701840+119340802+125432029+131959427+138898632+146213794+153853481
2835.26+161750495+169832515+178039993+186332952+194689603+203092393+211516584
2842.01+219928515+228288611+236552269+244660983+252525033+260001627+266885009
2848.76+272911737+277794099+281273975+283180157+283461616+282187631+279519294
2855.51+275668598+270867899+265353962+259365287+253134510+246874432+240762922
2862.26+234936176+229502194+224555101+220180627+216441717+213357553+210897920
2869.01+208995044+207572430+206566279+205933353+205648417+205688255+206023567
2875.77+206618067+207435953+208452596+209659645+211052617+212620973+214343933
2882.52+216205559+218210055+220380842+222746599+225320734+228094013+231044353
2889.27+234148801+237388437+240748799+244219255+247801125+251521225+255430584
2896.02+259591466+264045338+268791749+273785850+278966866+284296278+289784609
2902.77+295477112+301414977+307593640+313943512+320343047+326647230+332704253
2909.52+338369007+343503807+347993156+351766224+354814413+357191608+358997255
2916.27+360348960+361361816+362134588+362739874+363209614+363527668+363629661
2923.02+363421640+362802138+361690113+360031683+357799408+354983636+351589024
2929.77+347639873+343182369+338291503+333069609+327637087+322126129+316662536
2936.52+311354261+306281291+301499061+297050372+292979612+289337124+286179616
2943.27+283564540+281550220+280192399+279535868+279601298+280377018+281822709
2950.02+283888895+286531191+289717876+293417351+297576976+302090007+306768661
2956.77+311319001+315344197+318375408+319937526+319624624+317162632+312444093
2963.52+305532078+296642989+286119866+274402093+261981976+249338892+236882987
2970.27+224913925+213627125+203142707+193533209+184833518+177035782+170087793
2977.02+163905917+158398576+153482180+149086444+145145270+141584057+138319760
2983.78+135267163+132350438+129505280+126679235+123823858+120910159+117954403
2990.53+115036847+112289865+109849166+107802875+106169183+104918454+104013814
2997.28+103431838+103150418+103121948+103263259+103468588+103632868+103662487
3004.03+103475618+103006499+102213242+101081935+99620018+97844905+95783414
3010.78+93480565+91009921+88467220+85947395+83526289+81255627+79171974+77312397
3018.49+75712955+74401375+73381210+72624687+72079779+71690119+71414006+71227742
3026.21+71110540+71026984+70923811+70744756+70452628+70042117+69534230+68962761
3033.92+68352958+67710441+67020279+66258798+65403076+64443188+63385881+62249851
3041.64+61058538+59839698+58622770+57435581+56299083+55219967+54193807+53214058
3049.35+52280991+51407398+50611154+49907564+49310037+48827335+48463014+48210583
3057.07+48045872+47930435+47820873+47682533+47497833+47267770+47003980+46724845
3064.78+46447304+46186614+45955709+45761538+45601223+45462810+45330926+45195186
3072.50+45051826+44906045+44761819+44622133+44485773+44348756+44207441+44057516
3080.21+43893356+43709207+43497790+43256468+42988786+42708002+42433216+42185849
3087.93+41980225+41820197+41699907+41608866+41536364+41476447+41428446+41393574
3095.64+41370726+41353177+41329557+41295127+41259157+41238404+41243032+41261450
3103.36+41263316+41218958+41122963+41000061+40893707+40840417+40850117+40903938
3111.07+40967695+41011266+41021633+41002536+40965903+40924746+40889435+40869458
3118.79+40871436+40895255+40932979+40967505+40982505+40968704+40929642+40881536
3126.50+40845341+40838380+40864189+40911073+40955753+40975055+40954197+40894502
3134.22+40813953+40740135+40694896+40688925+40714734+40754669+40790631+40813681
3141.93+40822391+40824812+40827563+40832855+40834508+40820929+40782305+40723048
3149.65+40662360+40625722+40629800+40672160+40735708+40803563+40869209+40940051
3157.36+41028112+41139468+41263522+41376328+41453378+41485612+41485057+41476668
3165.08+41476672+41481751+41474022+41439690+41384712+41331838+41306115+41320800
3172.79+41372239+41448412+41535297+41621526+41701354+41768937+41820838+41855845
3180.51+41875726+41889204+41910520+41950060+42009813+42075421+42121374+42128338
3188.22+42093660+42035792+41988420+41982790+42033379+42131244+42249882+42360469
3195.94+42436258+42463114+42441473+42385692+42328585+42310144+42360089+42485819
3203.65+42659523+42832246+42956029+43011410+43011642+42993423+42988014+43009807
3211.37+43054138+43108972+43163480+43209697+43239890+43251292+43250536+43253869
3219.08+43277982+43325863+43382594+43425947+43440004+43427092+43405772+43398823
3226.80+43420399+43468618+43530552+43584862+43614294+43609669+43572536+43517601
3234.51+43465432+43437145+43441149+43468478+43504654+43537070+43561082+43577692
3242.23+43585452+43580609+43568023+43567046+43603667+43692376+43821683+43955317
3249.94+44055886+44101044+44095092+44064367+44041050+44045500+44079375+44132389
3257.66+44190715+44251031+44313457+44379314+44445174+44504955+44552677+44587999
3265.37+44609718+44616162+44607891+44589551+44576413+44585407+44625385+44689270
3273.09+44758913+44813177+44842427+44851979+44858653+44874952+44905424+44943311
3280.80+44972565+44977143+44948168+44896729+44852705+44850191+44903577+44995266
3288.52+45086853+45143794+45157334+45140317+45110904+45075287+45031038+44977050
3296.23+44921956+44874719+44837445+44798953+44753932+44704371+44664005+44644443
3303.95+44647244+44659562+44665130+44652431+44623131+44589073+44563645+44559362
3311.66+44578986+44621303+44680890+44746238+44804067+44840856+44852185+44845352
3319.38+44832099+44817076+44791981+44744189+44671264+44586389+44510479+44456934
3327.09+44424863+44407520+44398476+44395077+44396548+44392265+44369494+44318055
3334.81+44239166+44147214+44058699+43986453+43935130+43904060+43894908+43912867
3342.52+43957501+44017852+44070350+44093955+44083693+44054509+44035280+44047599
3350.24+44093455+44153596+44199347+44206575+44175063+44125498+44087782+44083165
3357.95+44109323+44145223+44169170+44167323+44143225+44104287+44058047+44012253
3365.67+43970995+43940810+43923355+43915859+43915890+43922233+43936434+43961486
3373.38+43998934+44044914+44094545+44138088+44169123+44187316+44201636+44223817
3381.10+44257626+44292320+44303649+44268362+44189671+44098805+44042710+44053485
3388.81+44125599+44220748+44293313+44318485+44300029+44258321+44210963+44165267
3396.53+44123446+44092035+44083437+44107504+44166008+44250204+44339945+44410973
3404.24+44442687+44430877+44392932+44352764+44326889+44313636+44303370+44291559
3411.96+44285615+44297511+44330222+44372679+44409712+44433123+44445678+44458680
3419.67+44487635+44545386+44637261+44753070+44873877+44980623+45068761+45151138
3427.39+45249147+45376972+45530529+45687313+45823825+45926094+45995438+46042722
3435.10+46080585+46120001+46164293+46208923+46245463+46264369+46264311+46258488
3442.82+46269409+46312825+46381975+46439261+46431214+46318590+46102394+45824799
3450.53+45541477+45292783+45094209+44937991+44802174+44659939+44489346+44281212
3458.25+44046074+43806420+43584183+43384666+43191485+42975067+42714287+42412812
3465.96+42094673+41790082+41521826+41295414+41103758+40935679+40779329+40626087
3473.68+40467332+40303276+40142666+39998977+39881829+39783692+39679375+39546878
3481.39+39384111+39218372+39084684+38990672+38910033+38804098+38656629+38489400
3489.11+38347809+38269180+38260796+38302989+38367495+38429689+38476084+38509893
3496.82+38548455+38612977+38714621+38842675+38968200+39061910+39116728+39159177
3504.54+39230469+39353817+39520507+39699259+39851058+39944496+39962646+39910260
3512.25+39805140+39668849+39514439+39343792+39147852+38913149+38632062+38309919
3519.97+37956686+37583310+37201615+36829930+36492644+36197892+35917965+35595391
3527.68+35185746+34699121+34200938+33770543+33456148+33256708+33139029+33052858
3535.40+32942344+32770052+32533673+32266819+32014758+31801809+31627185+31473931
3543.11+31322668+31158320+30978799+30798744+30649180+30553425+30508390+30486015
3550.83+30447141+30359970+30220994+30062006+29934160+29873075+29873910+29899165
3558.54+29894498+29829678+29720862+29623491+29596065+29662879+29807017+29977238
3566.26+30097532+30105300+30008565+29881149+29778047+29709701+29667644+29646374
3573.97+29646440+29666303+29687266+29686674+29660893+29636320+29654423+29742368
3581.69+29898083+30099245+30318699+30527508+30690007+30772624+30779189+30769687
3589.40+30813786+30924262+31073927+31229113+31366149+31478977+31588834+31739780
3597.12+31960787+32241963+32544676+32837084+33121826+33425357+33766213+34144630
3604.83+34564820+35070845+35755377+36720002+37999108+39545237+41351117+43575826
3612.55+46533475+50533239+55684399+61877883+68866805+76074914+82096606+84791101
3620.26+82943513+77649927+71111883+64908462+59692927+55561071+52319588+49608510
3627.98+47059077+44652416+42849065+41964361+41815080+42090068+42587933+43214531
3635.69+43942490+44788579+45797702+47025684+48526565+50338758+52457291+54816417
3643.41+57324567+59942188+62748652+65945656+69733732+73917986+77400322+79019775
3651.12+79112457+78612966+77860440+76727340+74979316+72565985+69834002+67385202
3658.84+65616669+64558171+64080950+64090452+64547982+65412597+66587708+67922769
3666.55+69233962+70315607+70940952+70952452+70496400+70024371+69879777+70117006
3674.27+70698625+71658987+73133202+75240236+78002667+81407096+85432858+90032333
3681.98+95130351+100641262+106474185+112575259+119025681+126168081+134592102
3688.73+144601627+155118620+163777339+169125359+171344706+170930370+168009796
3695.48+162593631+154950592+145648439+135234665+123889318+111477209+98146059
3702.23+84936642+73400469+64387962+57629973+52372206+47978208+44055890+40316293
3709.95+36469768+32394193+28470181+25313100+23077343+21466352+20153301+18948431
3717.66+17777928+16635924+15549572+14545738+13628649+12779634+11968621+11184660
3725.38+10441876+9777352+9245106+8894659+8746800+8786030+8956960+9170800
3733.09+9302251+9202910+8768538+8092279+7447697+7044933+6905032+6932796+7025476
3741.77+7115988+7179644+7206436+7186575+7124846+7067794+7067725+7134644+7204178
3750.45+7142228+6855729+6439899+6059484+5784228+5609738+5496001+5383790+5209876
3759.13+4957329+4682982+4467860+4339197+4278409+4265835+4303973+4397931+4521110
3767.81+4612367+4611631+4500874+4317469+4122134+3955266+3827496+3737839+3681080
3776.49+3650701+3640517+3644878+3656731+3668043+3676638+3686321+3693615+3682019
3785.17+3627320+3523662+3395366+3277606+3192958+3147930+3141001+3171519+3235362
3793.85+3323959+3428953+3550784+3694014+3856153+4010706+4110535+4102523+3973418
3802.53+3782641+3609907+3479201+3357625+3208048+3022225+2835659+2697948+2633390
3811.21+2640785+2704942+2810454+2940939+3082183+3219748+3344188+3450289+3520238
3819.89+3517546+3398017+3171990+2914290+2683974+2486461+2313491+2176886+2106153
3828.57+2124720+2233246+2416012+2649487+2903079+3140205+3331001+3462741+3535633
3837.25+3547276+3493979+3385515+3252625+3112360+2955927+2770738+2569392+2393028
3845.93+2287441+2273022+2346625+2494366+2702262+2957415+3222705+3397027+3356868
3854.61+3135466+2906923+2750166+2653130+2595503+2578044+2614432+2712268+2852565
3863.28+2981690+3037526+3009533+2947986+2902076+2881141+2854778+2786393+2675232
3871.96+2561146+2476702+2423418+2388481+2368416+2367567+2384412+2401802+2392593
3880.64+2340070+2261709+2193013+2152433+2134431+2130868+2141198+2167704+2200073
3889.32+2213987+2180896+2085603+1956339+1858016+1842186+1914602+2053890+2232055
3898.00+2415454+2567056+2652648+2656797+2583738+2448787+2271825+2077726+1888855
3906.68+1712377+1545464+1387788+1254757+1176640+1182514+1283233+1459711+1665843
3915.36+1843015+1933355+1907755+1786296+1634127+1516049+1466789+1479504+1524241
3924.04+1564855+1582674+1588010+1607350+1660125+1739934+1820398+1864713+1843562
3932.72+1756078+1628756+1494060+1373701+1277551+1210601+1175778+1170801+1180044
3941.40+1176694+1133298+1051046+968908+937342+981093+1082151+1191139+1258563
3950.08+1270195+1250674+1231370+1218146+1192764+1137533+1051259+953485+869280
3958.76+814164+790413+793249+812583+835607+845392+830646+792461+745809+708382
3968.40+686258+670320+645809+611206+580400+571625+589763+620600+637546+623236
3978.05+575609+508012+437163+377493+331496+295267+263052+232032+208281+199398
3987.69+207984+226554+243822+249045+234735+200676+149362+91106+41423+17022+0+0
##END=
