##TITLE=Default
##JCAMP-DX=4.24
##DATA TYPE=INFRARED SPECTRUM
##DATE=19/9/2016
##SAMPLING PROCEDURE=ATR
##ORIGIN=Default
##XUNITS=1/CM
##YUNITS=ABSORBANCE
##RESOLUTION=4
##FIRSTX=599.84104
##LASTX=3998.2974
##DELTAX=0.96437467
##MAXY=0.45015645
##MINY=0.023697274
##XFACTOR=1
##YFACTOR=4.1924086e-010
##NPOINTS=3525
##FIRSTY=0.17251237
##XYDATA=(X++(Y..Y))
599.84+411487481+407819992+403691152+399063392+393961521+388555863+383088359
606.59+377692759+372322573+366854430+361267074+355730617+350532780+345896561
613.34+341821071+338071015+334359807+330615864+327100215+324222531+322232681
620.09+321115985+320768515+321190306+322481661+324698099+327723003+331292465
626.84+335106499+338951668+342756497+346579239+350514439+354580261+358665703
633.59+362603001+366316092+369897318+373543873+377416482+381559966+385913901
640.34+390363625+394778837+399053404+403145279+407090645+410970825+414857794
647.10+418780021+422733420+426711344+430736718+434880486+439252975+443950684
653.85+448984027+454240191+459508510+464550526+469167659+473261631+476875983
660.60+480183349+483395636+486654948+490031374+493665630+497990491+503855581
667.35+512146743+522383113+532049548+539175852+544033364+547656069+550615608
674.10+552952787+554501511+555185611+555117759+554520491+553624802+552634533
680.85+551704688+550908129+550212868+549496993+548593982+547333763+545572988
687.60+543209081+540186026+536472614+532027582+526786915+520687596+513707587
694.35+505876176+497246927+487865087+477759765+466975603+455602810+443779614
701.10+431663009+419397869+407117516+394974005+383160654+371909063+361453321
707.85+351985004+343592117+336203966+329580064+323399351+317426494+311655025
714.60+306315193+301733746+298152040+295621933+294017975+293124454+292740481
721.35+292756867+293169114+294023715+295347788+297108598+299226600+301622282
728.10+304261365+307177577+310459565+314213176+318513192+323375288+328754893
734.85+334572569+340735475+347148037+353708991+360313059+366855567+373233652
741.60+379338267+385051623+390249318+394816797+398662393+401723871+403965758
748.35+405366054+405897389+405510892+404134660+401694832+398154161+393556542
755.11+388048377+381870756+375319042+368686895+362216895+356076843+350370916
761.86+345162913+340489694+336358508+332743480+329603416+326909029+324666502
768.61+322912907+321699533+321074648+321076248+321730100+323051987+325050652
775.36+327729081+331080201+335080730+339691145+344857704+350510956+356552518
782.11+362846436+369224841+375504827+381504021+387051852+392004228+396268417
788.86+399819964+402692317+404940424+406601749+407670248+408085180+407735399
795.61+406475321+404169350+400745651+396238098+390790499+384628872+378019295
802.36+371231788+364510107+358052228+351995951+346417553+341342553+336770169
809.11+332709145+329206612+326339378+324170496+322704730+321886277+321647320
815.86+321952992+322802119+324187486+326063349+328354855+330986864+333905174
822.61+337069336+340440146+343966138+347579424+351195198+354726593+358108422
829.36+361306456+364301646+367065947+369551554+371707498+373489883+374861424
836.11+375782810+376213132+376109701+375410957+374022711+371828274+368732284
842.86+364707123+359807920+354174571+348040882+341745328+335697546+330273797
849.61+325683890+321888801+318627215+315548605+312380355+309052979+305713304
856.36+302637680+300115926+298395884+297702827+298293519+300491191+304714185
863.12+311499773+321423114+334751671+350843427+367638655+381824052+389991701
869.87+390345001+383797339+373563635+363498192+356356284+352979574+352608254
876.62+353844873+355606145+357599976+360253418+364281742+370126394+377452843
883.37+384971544+390890624+393967954+394490724+394213522+395003932+397141180
890.12+398737247+396971248+390331032+380015721+369317538+361651936+358908037
896.87+361133823+367305615+376302985+387420933+400349842+414960016+431169136
903.62+448909457+468095463+488543500+509863981+531366621+552012385+570472101
910.37+585327451+595374127+599905850+598863652+592813524+582791089+570063958
917.12+555872910+541229041+526824058+513059848+500140037+488159136+477172591
923.87+467239156+458441468+450873361+444606562+439659731+435987976+433487797
930.62+431997933+431299295+431125063+431175321+431128226+430644910+429389311
937.37+427065532+423467636+418508471+412227028+404779982+396426015+387499377
944.12+378364348+369370177+360822358+352976446+346030310+340110910+335260010
950.87+331439365+328555461+326486953+325107024+324303001+323989013+324112916
957.62+324646135+325563825+326831402+328403016+330228266+332255436+334433381
964.37+336715042+339065051+341464359+343911864+346422564+349029516+351783225
971.13+354749554+358004493+361637648+365753906+370471910+375913645+382184033
977.88+389358073+397470737+406517298+416460721+427252062+438860258+451299666
984.63+464646742+479038005+494656646+511713080+530423127+550997236+573636867
991.38+598533456+625848332+655660474+687894388+722250656+758181205+794923417
998.13+831602292+867370621+901521450+933492272+962733235+988504257+1009732717
1004.88+1025043305+1032993465+1032446456+1022951232+1004975686+979888515
1010.66+949703809+916715314+883172274+851073567+822088941+797559727+778540277
1017.42+765846948+760090869+761687683+770843469+787516499+811349351+841575216
1024.17+876913330+915497888+954910035+992360765+1025028519+1050469701
1029.95+1066971697+1073741823+1070881093+1059198897+1039973936+1014736417
1035.74+985097442+952592832+918560503+884074573+849947558+816773030+784967270
1042.49+754798487+726412410+699868322+675170491+652291974+631192750+611836351
1049.24+594208026+578315845+564177116+551797669+541158559+532217560+524913398
1055.99+519169723+514897715+511999772+510377118+509937804+510597877+512280990
1062.74+514916980+518437676+522769467+527824101+533497258+539672142+546226308
1069.49+553027250+559931516+566788510+573447173+579757121+585563991+590713845
1076.24+595075813+598570207+601176803+602920055+603844391+603995805+603417233
1082.99+602147133+600226662+597702385+594624272+591031033+586934537+582324193
1089.74+577186779+571525068+565356546+558697563+551538879+543837947+535523966
1096.49+526515969+516758651+506252081+495074172+483381632+471401229+459423740
1103.24+447806232+436965557+427361002+419452676+413639942+410172205+409033223
1110.00+409825126+411717090+413525777+413953042+411906464+406772001+398511619
1116.75+387570889+374672512+360613044+346137330+331889093+318386552+305994415
1123.50+294891094+285068002+276373816+268591721+261517719+255010310+249000879
1130.25+243475582+238445633+233923383+229908193+226384778+223327849+220706076
1137.00+218486173+216633537+215116855+213912349+213007100+212396823+212083314
1143.75+212071034+212365367+212964164+213846914+214958795+216205063+217461835
1150.50+218596054+219484759+220028428+220156703+219835037+219070432+217911315
1157.25+216439862+214750387+212930646+211049149+209155710+207283845+205451184
1164.00+203659718+201899779+200159300+198431385+196712783+195002000+193296584
1170.75+191595006+189898369+188209979+186534846+184879759+183253391+181660203
1177.50+180097724+178557192+177032567+175528628+174057459+172628356+171237657
1184.25+169867200+168491892+167089961+165654123+164194382+162730322+161280746
1191.00+159852442+158444292+157055459+155693159+154372498+153108405+151911363
1197.75+150786599+149732067+148739959+147798651+146899115+146036614+145207649
1204.50+144403698+143614763+142836136+142071620+141328625+140610901+139921389
1211.25+139268141+138669656+138148770+137722003+137392713+137150779+136975143
1218.01+136841465+136733582+136649673+136597896+136583519+136598811+136627272
1224.76+136653761+136671657+136682924+136697017+136727522+136786426+136875355
1231.51+136985006+137103764+137229934+137370996+137528648+137687730+137823070
1238.26+137912586+137949195+137937697+137889305+137817570+137731244+137626454
1245.01+137484574+137284075+137017563+136697372+136345370+135980040+135612230
1251.76+135248987+134893964+134544823+134193621+133830805+133446343+133026355
1258.51+132556439+132034203+131477312+130918973+130386980+129895719+129456397
1265.26+129086072+128801735+128606683+128489870+128440172+128453945+128530132
1272.01+128659811+128830472+129036276+129279818+129565958+129899291+130289014
1278.76+130749503+131286232+131884397+132513778+133145221+133756893+134324011
1285.51+134810197+135179198+135417293+135541223+135589011+135607023+135648271
1292.26+135769899+136024540+136451796+137082758+137947000+139063688+140419474
1299.01+141958317+143599444+145262421+146875638+148371874+149695529+150818534
1305.76+151744790+152488851+153055090+153440094+153650687+153709493+153642814
1312.51+153473664+153231242+152952814+152661627+152348082+151986857+151579656
1319.26+151174553+150833178+150584855+150421641+150326545+150288141+150291073
1326.02+150308631+150319419+150320627+150319348+150314905+150299923+150283716
1332.77+150295996+150363883+150489617+150659976+150874603+151156123+151537644
1339.52+152043353+152691892+153503325+154487232+155637392+156945311+158420478
1346.27+160091808+161985425+164107780+166451837+169015105+171800004+174797788
1353.02+177980735+181299635+184672080+187968249+191035841+193766891+196151502
1359.77+198274142+200265076+202248956+204313500+206521372+208979149+211937161
1366.52+215849472+221309031+228792314+238355549+249658162+262304681+275895902
1373.27+289383746+300361458+305761998+303947731+295618147+282789434+267748477
1380.02+252714646+239579586+229477747+222580038+218377002+216175314+215444439
1386.77+215881265+217253232+219248503+221555754+224031107+226732408+229843202
1393.52+233562673+237959811+242875684+248053475+253383427+258897421+264532351
1400.27+270066924+275359733+280578132+286177750+292643253+300117170+308261894
1407.02+316667789+325362366+334793967+345430660+357403102+370416391+383935176
1413.77+397470843+410817527+424216887+438398303+454099866+470715991+485588581
1420.52+496251149+502535755+505521171+506128782+504970002+502599946+499473247
1427.27+495755606+491415355+486605756+481964205+478374058+476363983+475978766
1434.03+477249329+480608908+486676487+495222742+504604938+513115579+520137494
1440.78+525657708+529597671+531717930+531781481+529596107+524914002+517514832
1447.53+507650919+496386640+485124458+474761234+465516946+457324594+450061874
1454.28+443424395+436643571+428534141+419013718+410881221+406404768+404606496
1461.03+403805921+402948477+401350206+398543821+394608763+390437875+387086294
1467.78+384932980+383799756+383511181+384226346+386504274+390961675+397407576
1474.53+404651493+411632462+417905090+423233868+427370883+430083931+431215200
1481.28+430754027+428904537+426014022+422356733+417967397+412605990+405761365
1488.03+396787561+385686567+374237036+364995165+358841962+354969779+352222326
1494.78+349713367+346951767+344010461+341591782+340458593+340738638+342059672
1501.53+343999371+346234256+348497754+350445130+351304138+349381642+343307203
1508.28+335548158+329222642+324191360+319551089+314977212+310468735+305977817
1515.03+301296991+296259436+291103113+286458008+282725421+279634318+276565323
1521.78+273326253+270477697+268539544+267337189+266389465+265447659+264615415
1528.53+264085377+263871229+263811481+263707393+263437034+263042486+262717230
1535.28+262610459+262700934+262842805+262754391+261886319+259515890+255748311
1542.04+251788639+248052373+244263415+240481797+236898722+233401538+229582457
1548.79+225048709+219779607+214220651+208917268+204070082+199565018+195322404
1555.54+191409009+187666559+183094086+176243064+168482153+163337382+160850477
1562.29+159365145+157918626+156229613+154365105+152488354+150645990+148706246
1569.04+146540004+144324765+142491180+141253397+140452502+139754967+138814938
1575.79+137446223+135880279+134589963+133705684+133028746+132368602+131653633
1582.54+130892982+130122805+129380832+128697069+128084607+127530959+127006981
1589.29+126495630+126004601+125549355+125127688+124722416+124325514+123946508
1596.04+123593182+123257983+122925743+122588393+122240941+121873326+121480298
1602.79+121081095+120715418+120412083+120168053+119966016+119805672+119707804
1609.54+119692147+119757920+119892388+120084286+120318525+120565994+120789374
1616.29+120978109+121174654+121420310+121692349+121935074+122102269+122167997
1623.04+122134649+122050447+121983350+121965499+121980782+122001202+122023772
1629.79+122077335+122189048+122353506+122530920+122653375+122635026+122426814
1636.54+122127558+121920003+121858878+121891178+121963970+122049896+122140691
1643.29+122234756+122322024+122374423+122368719+122355727+122450859+122680628
1650.05+122968981+123237394+123458224+123708324+124130319+124699704+125285153
1656.80+125845350+126389383+126908571+127357437+127647097+127661900+127329714
1663.55+126714434+125976220+125211224+124365198+123237536+121541042+119151757
1670.30+116475176+114177353+112456742+111037920+109619871+108142482+106784928
1677.05+105733462+104996589+104462446+104016503+103572178+103022742+102194150
1683.80+100977089+99654713+98700583+98161597+97777730+97340549+96799359
1690.55+96230117+95734067+95340195+94990397+94578274+94010596+93279241+92475485
1698.26+91676545+90886028+90152230+89604883+89300491+89157678+89047788+88878309
1705.98+88637895+88395650+88226002+88144857+88122936+88128116+88144857+88167978
1713.69+88184852+88157359+88017728+87721262+87355416+87094867+86996145+86995070
1721.41+87012806+86997158+86928729+86826258+86734885+86694064+86716962+86794704
1729.12+86913081+87060887+87225710+87392434+87553205+87723883+87926986+88148616
1736.84+88344814+88473587+88506607+88436462+88280934+88068555+87815549+87524850
1744.55+87201594+86857482+86494426+86090167+85601217+85002314+84348017+83764096
1752.27+83339817+83066560+82873907+82684364+82449726+82177643+81913850+81684463
1759.98+81465082+81215959+80946462+80721900+80593616+80548369+80538888+80528145
1767.70+80505326+80472760+80423106+80327824+80160024+79945299+79762900+79675339
1775.41+79681009+79742027+79815851+79864802+79865398+79818250+79746559+79679676
1783.13+79635931+79622735+79647269+79716685+79830050+79974187+80124534+80247825
1790.84+80307342+80289055+80234078+80213401+80256835+80342103+80429717+80488843
1798.56+80496050+80433716+80300997+80130470+79979651+79893681+79880006+79916758
1806.27+79974249+80028212+80061765+80067434+80048427+80019406+79999733+80000400
1813.99+80025475+80082176+80180773+80324820+80500119+80680119+80845190+80991069
1821.70+81121201+81234859+81329093+81407235+81475434+81525869+81527069+81445844
1829.42+81283740+81099831+80966961+80908342+80893929+80883710+80850602+80787246
1837.13+80709220+80648343+80632731+80662765+80704813+80703142+80607229+80416237
1844.85+80205129+80069300+80035747+80062698+80096651+80108122+80099858+80091852
1852.56+80099921+80123939+80149957+80167364+80175503+80178240+80173566+80154488
1860.28+80117932+80075440+80045424+80043958+80074241+80122606+80153022+80109064
1867.99+79945965+79691743+79453319+79318859+79290931+79319792+79358587+79384987
1875.71+79397587+79402048+79403381+79405718+79412382+79422050+79428314+79422583
1883.42+79402981+79376119+79350919+79332721+79321258+79311661+79297791+79275594
1891.14+79248332+79226144+79216210+79217276+79220475+79216939+79203344+79184488
1898.85+79168422+79167951+79196217+79257867+79340789+79421054+79477053+79499116
1906.57+79489386+79451915+79394184+79335120+79300856+79306597+79343455+79384783
1914.28+79403452+79384720+79331326+79267863+79231209+79242272+79277531+79282063
1922.00+79210808+79075521+78944838+78890332+78927315+79014209+79096776+79143898
1929.71+79156027+79153023+79154489+79168689+79186149+79186487+79154623+79097914
1937.43+79040129+78998348+78959695+78887604+78750488+78556235+78356758+78206997
1945.14+78118707+78061047+77993009+77892422+77762884+77617673+77457559+77259761
1952.86+76994289+76660334+76301570+75985307+75757502+75614023+75517381+75434369
1960.57+75351963+75267361+75167378+75025703+74822858+74571878+74323480+74150554
1968.29+74096897+74139611+74198044+74182458+74048349+73819700+73578908+73427645
1976.00+73438050+73625709+73945758+74318904+74672012+74966888+75199180+75374408
1983.72+75488493+75536245+75534850+75527546+75555572+75621131+75681110+75681643
1991.43+75602062+75473485+75343263+75229649+75110873+74953612+74749523+74527951
1999.15+74336085+74200696+74103792+73995030+73836214+73639034+73467218+73393643
2006.86+73447598+73590841+73748427+73856434+73888996+73846290+73735831+73564522
2014.58+73346455+73117766+72926357+72814072+72796451+72860971+72980018+73126576
2022.29+73274285+73398882+73473247+73475833+73403587+73283233+73166798+73109085
2030.01+73139501+73255727+73438717+73675363+73956035+74257077+74532065+74737509
2037.72+74863412+74943793+75027426+75144666+75291273+75447387+75604257+75778827
2045.44+76002323+76295519+76643984+76987038+77239475+77338401+77278653+77118140
2053.15+76937163+76801370+76736805+76741586+76805093+76922261+77088070+77286241
2060.87+77486376+77648817+77743185+77761160+77723751+77668313+77631979+77635773
2068.58+77681295+77757962+77849148+77936086+78004791+78052926+78090139+78130952
2076.30+78182623+78242220+78299284+78343909+78370540+78378137+78368345+78346832
2084.01+78318469+78287369+78251870+78202865+78126358+78009181+77851280+77674302
2091.73+77519316+77432279+77440792+77543467+77711835+77906194+78088478+78233894
2099.44+78327986+78366346+78352226+78299889+78231628+78172973+78138540+78127895
2107.16+78126962+78124430+78122164+78133555+78167775+78218317+78264461+78284036
2114.87+78265261+78210791+78132685+78045471+77957785+77869718+77774933+77672773
2122.59+77571484+77483781+77408394+77321633+77188986+76989304+76733544+76458431
2130.30+76209122+76020530+75908773+75870040+75883058+75914620+75933289+75919534
2138.02+75866450+75773638+75641782+75477466+75301758+75145199+75031878+74964435
2145.73+74914124+74836933+74692512+74464791+74161496+73804718+73409553+72974851
2153.45+72499408+72016966+71627449+71493073+71764947+72476033+73475833+74491528
2161.16+75282840+75762087+75985440+76058606+76053416+75992949+75882391+75740956
2168.88+75598748+75481784+75401830+75361453+75362314+75402692+75472418+75551857
2176.59+75613818+75637934+75618208+75574570+75546011+75570980+75661579+75796564
2184.31+75937075+76056811+76150574+76229791+76306422+76387114+76472791+76561009
2192.02+76643051+76709473+76756950+76793053+76831955+76882630+76939357+76986710
2199.74+77009058+77007929+77002669+77021293+77083680+77188986+77318505+77448585
2207.45+77557240+77629580+77655473+77634369+77579668+77514926+77460954+77429951
2215.17+77424095+77446985+77502211+77587852+77691540+77794367+77881767+77950997
2222.88+78006791+78054321+78092334+78115242+78116975+78100794+78086674+78107787
2230.60+78191615+78339573+78518666+78677873+78774337+78794392+78756015+78697519
2238.31+78657889+78663282+78713647+78787790+78856282+78901457+78924383+78938707
2246.03+78957296+78981892+79004879+79015142+79005475+78976160+78938173+78908326
2253.74+78902390+78929643+78992812+79090112+79215410+79352989+79478786+79567590
2261.46+79605195+79602129+79590258+79606261+79670808+79772834+79872533+79930566
2269.17+79933499+79905748+79888545+79909151+79964243+80031011+80091053+80141879
2276.89+80189845+80234683+80265037+80270439+80255298+80242422+80261038+80326820
2284.60+80432116+80549569+80648414+80710819+80740587+80757274+80786518+80851002
2292.32+80961959+81116661+81296634+81476971+81639030+81777400+81899819+82013353
2300.03+82116882+82206522+82288209+82386548+82538522+82774182+83099544+83491799
2307.75+83908570+84306156+84655244+84948759+85201800+85444836+85714964+86042459
2315.46+86442747+86915231+87453169+88054364+88721501+89444796+90177626+90833584
2323.18+91320082+91594653+91692059+91705344+91736382+91849045+92049313+92296667
2330.89+92536521+92739420+92906357+93052458+93182226+93288358+93368561+93441469
2338.61+93540537+93689836+93877548+94030002+94010258+93647113+92850101+91733005
2346.32+90594468+89741013+89345986+89448431+90008360+90943662+92137185+93448098
2354.04+94747131+95956692+97036930+97945281+98629407+99073786+99322962+99442849
2361.75+99450731+99306994+98939140+98303476+97413332+96331424+95139492+93908782
2369.47+92680063+91469461+90280417+89115684+87984388+86900125+85876286+84921889
2377.18+84040213+83228939+82483225+81798717+81173085+80608428+80109260+79680609
2384.90+79322920+79031999+78800915+78621110+78485966+78391590+78337511+78326191
2392.61+78356829+78421091+78500548+78573420+78624443+78653819+78673341+78695191
2400.33+78723102+78754220+78784467+78817042+78860547+78920251+78992013+79060789
2408.04+79107706+79121372+79104907+79074384+79051725+79053129+79081581+79128232
2415.76+79176553+79211607+79226678+79225478+79220742+79226473+79251131+79292664
2423.47+79341118+79384516+79413386+79422921+79414852+79397649+79384250+79386720
2431.19+79407850+79439786+79469651+79491652+79511583+79540853+79587459+79648673
2438.90+79714419+79774301+79823386+79863265+79898684+79933099+79965710+79994126
2446.62+80015674+80030212+80042154+80058495+80086983+80130746+80186042+80242822
2454.33+80286256+80305138+80295533+80262167+80217533+80176241+80148553+80138343
2462.05+80140751+80148153+80154826+80160691+80169905+80184309+80200188+80208327
2469.76+80199726+80172233+80133278+80097522+80079439+80084513+80106994+80132745
2477.48+80151352+80163499+80179111+80209065+80254560+80306809+80353246+80385804
2485.19+80406490+80424981+80454269+80502590+80567385+80638134+80701472+80749730
2492.91+80784643+80813219+80843324+80879969+80926433+80985124+81056966+81139897
2500.62+81229315+81319408+81406498+81488922+81566415+81638230+81704838+81765839
2508.34+81820567+81867075+81902618+81928618+81950273+81976068+82011150+82055330
2516.05+82103180+82151305+82203376+82268553+82352649+82451930+82551362+82633138
2523.77+82690789+82733992+82781344+82848956+82941866+83051508+83162900+83261657
2531.48+83337746+83389408+83421859+83444616+83466101+83489258+83509269+83518439
2539.20+83511472+83487516+83450303+83405598+83360298+83321414+83295716+83286617
2546.91+83293379+83313248+83344437+83388866+83447894+83517568+83586104+83637304
2554.63+83660132+83656657+83640521+83628134+83627068+83631217+83631484+83626464
2562.34+83627334+83647016+83686638+83729015+83752375+83747222+83724660+83707662
2570.06+83712682+83739997+83776482+83807876+83828029+83840211+83850661+83863448
2577.77+83875026+83880180+83876768+83869810+83869268+83883201+83911387+83944460
2585.49+83968434+83974796+83965421+83950555+83943322+83950351+83968896+83990257
2593.20+84004990+84010010+84008206+84005861+84007673+84014968+84024743+84031914
2600.92+84032109+84023339+84007869+83990328+83976200+83970842+83979008+84004457
2608.63+84047579+84101952+84155062+84192764+84207168+84203276+84197047+84207897
2616.35+84247616+84313922+84394437+84473751+84540208+84589187+84621415+84642119
2624.06+84659473+84683589+84721585+84772110+84824980+84863376+84874039+84852926
2631.78+84808826+84759714+84723327+84708781+84713410+84726001+84734114+84731235
2639.49+84718297+84701343+84688548+84686273+84698864+84726410+84763259+84798376
2647.21+84819889+84819622+84797710+84764468+84735118+84721780+84727610+84744031
2654.92+84758434+84760718+84749389+84729627+84708319+84688352+84670056+84654044
2662.64+84642519+84639036+84646873+84667915+84701414+84745977+84798305+84854668
2670.35+84911563+84965856+85015989+85064248+85113920+85168212+85228751+85293040
2678.07+85359017+85424727+85491380+85560316+85631269+85703030+85771105+85831475
2685.78+85880649+85919018+85950216+85979601+86011465+86044476+86073524+86092717
2693.50+86100030+86099355+86098617+86107477+86132703+86178261+86242887+86322006
2701.21+86407443+86492409+86572959+86650559+86730389+86818545+86917515+87027308
2708.93+87147391+87278971+87428644+87607631+87828123+88102365+88438684+88842312
2716.64+89315828+89863904+90490424+91195272+91964294+92760559+93522561+94173952
2724.36+94642474+94879893+94874206+94645921+94237725+93701663+93092648+92465702
2732.07+91871712+91349823+90922158+90592850+90352436+90188404+90086760+90035231
2739.79+90021831+90037523+90075377+90130807+90199245+90274019+90345639+90408559
2747.50+90463411+90519738+90591837+90691243+90822060+90978787+91149421+91321299
2755.22+91485651+91639713+91785023+91925223+92062073+92195084+92324009+92452737
2762.93+92587828+92737598+92905344+93086570+93270799+93444917+93599805+93732754
2770.65+93849354+93961981+94084899+94231568+94409710+94622312+94868724+95146059
2778.36+95449055+95769620+96095835+96414364+96714758+96995291+97262683+97531300
2786.08+97813895+98117541+98443685+98792613+99165781+99562950+99982155
2792.83+100420252+100877515+101358396+101866895+102403180+102961297+103534715
2799.58+104118361+104708681+105301186+105890341+106471952+107045415+107611645
2806.33+108170855+108725435+109285321+109871108+110508273+111215672+111993854
2813.08+112826605+113691993+114577276+115486516+116436967+117448589+118537082
2819.83+119711136+120979290+122356074+123863417+125525452+127359881+129376984
2826.58+131582324+133985533+136603458+139454547+142550840+145895366+149484438
2833.33+153312423+157370425+161644512+166113999+170758517+175563229+180521878
2840.08+185633328+190899070+196319408+201890325+207590707+213363829+219103540
2846.83+224646733+229779544+234258218+237842732+240340779+241641447+241729949
2853.58+240672859+238594257+235653200+232031597+227928063+223545409+219073417
2860.34+214672299+210463113+206532444+202942190+199741401+196968498+194644666
2867.09+192763862+191285123+190143155+189266358+188599248+188111435+187794443
2873.84+187645819+187654936+187797855+188044792+188375130+188785192+189285249
2880.59+189888435+190599637+191417024+192338606+193367119+194509086+195766711
2887.34+197135569+198606009+200167155+201810495+203530075+205324029+207197866
2894.09+209167119+211253772+213480908+215865377+218413291+221121434+223983213
2900.84+226997187+230171550+233520430+237051380+240748264+244560876+248404997
2907.59+252179454+255787515+259152959+262227445+264981617+267396564+269457660
2914.34+271157727+272507107+273541876+274324822+274931953+275430215+275854245
2921.09+276196206+276410177+276426455+276167843+275559095+274538010+273064620
2927.84+271132225+268767536+266019354+262943392+259592912+256022047+252297777
2934.59+248508819+244759723+241152248+237765212+234642102+231800886+229254216
2941.34+227028856+225174852+223756056+222835807+222461253+222654128+223406204
2948.09+224681245+226427429+228597288+231162174+234109061+237419306+241038474
2954.84+244853486+248684794+252292091+255384740+257639369+258730563+258371808
2961.59+256366461+252647967+247292780+240507512+232588772+223883194+214749623
2968.35+205523017+196487403+187856768+179777231+172341380+165603918+159588783
2975.10+154282556+149632813+145559838+141980407+138826090+136046434+133593705
2981.85+131405950+129404477+127505608+125639279+123761203+121853324+119915687
2988.60+117958199+115997298+114057404+112167989+110357703+108645543+107035898
2995.35+105527596+104123346+102836771+101683928+100667908+99770966+98962572
3002.10+98216040+97520513+96878470+96292798+95757091+95258828+94788005+94346203
3009.81+93945623+93602986+93332680+93140880+93027124+92985521+93007877+93086028
3017.53+93217760+93405997+93654346+93960160+94311238+94692465+95094281+95516970
3025.24+95961508+96419918+96872916+97299648+97688632+98038937+98352295+98626013
3032.96+98855311+99035737+99159126+99206211+99146961+98954894+98624858+98181892
3040.67+97665432+97109278+96526530+95916600+95279950+94626710+93972733+93329303
3048.39+92702215+92097767+91528889+91012091+90557201+90160512+89811789+89505175
3056.10+89244555+89035543+88873199+88739664+88613947+88484277+88350999+88219080
3063.82+88090805+87964493+87841629+87731614+87648958+87603667+87594870+87610252
3071.53+87628397+87628468+87596683+87533656+87451080+87366034+87292673+87238203
3079.25+87207903+87205619+87230810+87274342+87319482+87352190+87369926+87381816
3086.96+87399019+87428777+87472318+87531906+87610927+87707622+87808156+87885854
3094.68+87915763+87887462+87814208+87726709+87659444+87636660+87662731+87721395
3102.39+87783090+87818846+87814474+87777447+87730805+87703322+87714544+87765149
3110.11+87834369+87890697+87907295+87876444+87811853+87736315+87668649+87617378
3117.82+87585389+87576459+87594666+87639886+87703793+87772275+87833161+87879269
3125.54+87907828+87919726+87919460+87914217+87912467+87919664+87935117+87953608
3133.25+87968056+87973370+87967790+87955483+87946073+87951458+87980958+88035411
3140.97+88105928+88176384+88229565+88254446+88249603+88223310+88188824+88156284
3148.68+88128649+88104178+88082265+88070296+88079573+88118297+88180080+88246306
3156.40+88296058+88318788+88320805+88317508+88323222+88341580+88367873+88396521
3164.11+88425568+88461209+88510641+88576218+88651348+88723447+88779285+88814127
3171.83+88834173+88853686+88884227+88926816+88972365+89007419+89023974+89024507
3179.54+89020410+89024844+89043078+89070535+89095833+89109162+89108282+89102293
3187.26+89103439+89120598+89153440+89194821+89234869+89267169+89293356+89322226
3194.97+89363287+89418681+89478385+89522343+89533450+89511235+89471925+89440620
3202.69+89437661+89470912+89532241+89603532+89667288+89715227+89753133+89792933
3210.40+89839255+89881889+89902290+89892996+89866934+89851179+89865654+89905996
3218.12+89949430+89973341+89970916+89955223+89944311+89949225+89969165+89998328
3225.83+90031463+90064394+90090527+90102452+90097067+90080158+90063861+90058467
3233.55+90065540+90078745+90091407+90105615+90131082+90178026+90248757+90332363
3241.26+90407750+90453095+90456667+90425948+90387402+90373931+90406337+90481671
3248.98+90574723+90652892+90692318+90689759+90663004+90640229+90645614+90688408
3256.69+90760730+90847073+90931462+91004067+91060021+91099261+91123866+91138901
3264.41+91148071+91149688+91138225+91110724+91075936+91051864+91056583+91094543
3272.12+91155624+91221770+91279358+91324809+91361152+91391506+91418546+91442964
3279.84+91464068+91477494+91476143+91455839+91418679+91373699+91333571+91307340
3287.55+91299387+91308282+91329119+91356096+91382327+91405128+91423806+91438912
3295.27+91449566+91456586+91460291+91461508+91457456+91439178+91401689+91351644
3302.98+91310103+91299858+91330940+91391506+91457732+91507368+91533608+91541703
3310.70+91540219+91536034+91531377+91530231+91539073+91562815+91599914+91643756
3318.41+91686994+91726394+91760729+91787520+91800742+91797436+91782730+91770716
3326.13+91777932+91809512+91857344+91905052+91941821+91968274+91994523+92028058
3333.84+92065378+92092302+92094462+92070239+92035886+92014765+92021989+92054644
3341.56+92098647+92140215+92175580+92211150+92254282+92305713+92359507+92407037
3349.27+92443425+92469416+92491559+92518288+92556505+92609909+92678579+92761030
3356.99+92853611+92949320+93039893+93118452+93183647+93235123+93270453+93285052
3364.70+93276264+93252352+93230600+93230262+93260190+93317210+93392615+93477216
3372.42+93564262+93647655+93721194+93783315+93837118+93892015+93958196+94041563
3380.13+94139671+94242657+94336527+94411336+94465104+94505419+94545059+94594979
3387.85+94662431+94749432+94853094+94966370+95079326+95183015+95273445+95355701
3395.56+95439983+95537549+95654362+95783641+95909278+96014548+96094209+96160062
3403.28+96233440+96335147+96472851+96642223+96829322+97015364+97181573+97315660
3410.99+97419170+97510410+97614676+97750042+97919219+98109739+98302321+98478989
3418.71+98629887+98756483+98874807+99010537+99185419+99402205+99644112+99885602
3426.42+100108511+100312565+100513730+100734187+100987779+101269343+101558949
3433.17+101835973+102088871+102319351+102532148+102724544+102886079+103006641
3439.92+103085147+103132615+103166657+103201853+103237325+103254040+103222859
3446.68+103123614+102963403+102775815+102596775+102439985+102295084+102141413
3453.43+101962684+101752935+101516182+101261648+100997304+100726501+100443790
3460.18+100138367+99805843+99452766+99096614+98752200+98423719+98103830
3466.93+97783630+97461565+97146510+96852096+96590978+96365439+96167179+95984940
3474.64+95814182+95660857+95532884+95429969+95337485+95236081+95112488+94968129
3482.36+94816351+94670819+94536333+94406733+94276672+94150494+94046023+93985173
3490.07+93980437+94026483+94106811+94203435+94305489+94410723+94523617+94656407
3497.79+94822580+95029441+95272166+95535390+95797867+96043880+96269286+96483087
3505.50+96696115+96912164+97122714+97310844+97460072+97563529+97623837+97642364
3513.22+97608234+97502199+97308400+97025672+96669875+96268202+95843780+95402956
3520.93+94928134+94391850+93786425+93140614+92506274+91918336+91373290+90852191
3528.65+90356550+89915219+89554722+89270741+89031980+88801749+88555772+88289607
3536.36+88019683+87778122+87594870+87476210+87403382+87344602+87270308+87159013
3544.08+86998633+86795851+86587727+86426903+86341066+86305701+86269189+86191216
3551.79+86071311+85948199+85868911+85854213+85892049+85951282+85998785+86009919
3559.51+85984826+85956116+85969800+86048164+86165652+86255772+86238658+86076545
3567.22+85841400+85691959+85718518+85884265+86102980+86305896+86462278+86580210
3574.94+86690572+86822632+86986744+87177611+87389475+87620799+87873147+88151513
3582.65+88464106+88815406+89192608+89565092+89903099+90215550+90555654+90959372
3590.37+91415844+91905247+92424996+92984508+93589942+94230963+94886726+95536536
3598.08+96159520+96741459+97292192+97856174+98489038+99222588+100057782
3604.83+100997988+102076129+103352956+104879341+106650779+108641091+110921285
3611.58+113727412+117374801+122048297+127639837+133864535+140511264+147367832
3618.33+153728616+158127122+159267081+157313005+153537109+149133271+144778190
3625.08+140733614+136959566+133174366+129100405+125055367+122052606+120632522
3631.83+120424221+120907813+121816235+123073700+124672753+126614371+128890815
3638.59+131478787+134335607+137393273+140554112+143697534+146717622+149571821
3645.34+152292795+154910356+157221233+158440986+157527633+154888692+152276267
3652.09+150476111+149150812+147706078+145668209+142880574+139664661+136620928
3658.84+134122428+132145026+130525367+129183851+128149518+127475094+127158875
3665.59+127121395+127215425+127236439+126947660+126217860+125247602+124470885
3672.34+124108531+124096980+124363385+125023253+126345922+128469184+131308597
3679.09+134782349+138892387+143654554+149058622+155058855+161573355+168521019
3685.84+175933127+184104100+193584075+204587894+215812062+224613838+229495163
3692.59+230819147+229273338+225130885+218545192+209928526+199950857+189180823
3699.34+177752885+165479535+152472555+139723520+128679245+120071668+113567139
3706.09+108401317+103942502+99783140+95592401+91038313+86059102+81275992
3712.84+77555978+75081399+73441102+72202515+71112810+70062166+69025460+68024208
3720.56+67096713+66264433+65522407+64856043+64267363+63768514+63363442+63041465
3728.27+62791418+62598827+62432565+62236696+61946468+61523823+60997869+60467342
3735.99+60047590+59794474+59692434+59682295+59694722+59672223+59575363+59376890
3743.70+59067655+58700547+58407845+58303396+58377535+58512568+58542687+58347226
3751.42+58013479+57774700+57718298+57769022+57838620+57874790+57847630+57752894
3759.13+57637543+57585322+57644070+57780383+57923173+58019491+58056909+58052728
3766.85+58020535+57950923+57831241+57680106+57552035+57490617+57496552+57540546
3774.56+57592373+57627556+57628471+57584473+57501840+57408117+57339985+57317668
3782.28+57336790+57379340+57426981+57466141+57495837+57521424+57546420+57564827
3789.99+57572202+57572988+57577946+57591200+57602684+57601445+57596225+57617439
3797.71+57684936+57770457+57802708+57715490+57523183+57334898+57240668+57224616
3805.42+57225722+57205694+57174829+57173198+57224616+57320081+57436507+57551249
3813.14+57643679+57695772+57705044+57703543+57745715+57845538+57943415+57942500
3820.85+57798599+57598446+57480953+57476124+57515222+57529319+57496948+57440750
3828.57+57393499+57367851+57361324+57376990+57431811+57534739+57668160+57788607
3836.28+57850501+57830263+57746497+57653538+57593092+57555039+57506607+57431677
3844.00+57352123+57309706+57337243+57440425+57600730+57785279+57945961+58007930
3851.71+57858991+57417384+56844983+56524246+56560371+56770169+57005457+57220111
3859.43+57413666+57588458+57730440+57810088+57811199+57763144+57732462+57755183
3867.14+57807738+57835617+57793898+57687548+57572531+57499623+57470775+57464506
3874.86+57479194+57524880+57595180+57659216+57680888+57651316+57614765+57632910
3882.57+57713268+57797488+57826998+57802708+57781165+57806498+57863167+57895947
3890.29+57852198+57719862+57555039+57444993+57432593+57495642+57591786+57686504
3898.00+57765237+57829024+57883996+57923435+57913705+57818769+57643746+57450213
3905.72+57313754+57262070+57276620+57323413+57378034+57430700+57487480+57557127
3913.43+57640809+57723127+57775615+57772808+57712682+57628209+57565613+57548250
3921.15+57564564+57581341+57567830+57518225+57462551+57449107+57509086+57633172
3928.86+57777575+57879166+57878513+57760012+57574161+57405704+57313492+57303962
3936.58+57351079+57423716+57499165+57561174+57594656+57587543+57542896+57483957
3944.29+57439052+57416536+57401723+57375683+57334960+57294045+57271142+57267028
3952.01+57271204+57273554+57275252+57283538+57302527+57329348+57358649+57384951
3959.72+57404593+57413275+57407921+57390891+57371049+57355450+57345663+57334764
3967.44+57317406+57296067+57283604+57293263+57325759+57364003+57383712+57369939
3975.15+57329873+57286017+57260372+57258284+57268725+57273230+57261679+57235905
3982.87+57204845+57175286+57146705+57114996+57079049+57046491+57033705+57054324
3990.58+57107363+57172869+57220502+57227810+57193293+57136593+57087335+57065738
3998.30+57077223
##END=
