##TITLE=Default
##JCAMP-DX=4.24
##DATA TYPE=INFRARED SPECTRUM
##DATE=19/9/2016
##SAMPLING PROCEDURE=ATR
##ORIGIN=Default
##XUNITS=1/CM
##YUNITS=ABSORBANCE
##RESOLUTION=4
##FIRSTX=599.84104
##LASTX=3998.2974
##DELTAX=0.96437467
##MAXY=0.42668304
##MINY=0.022658536
##XFACTOR=1
##YFACTOR=3.9737955e-010
##NPOINTS=3525
##FIRSTY=0.17662323
##XYDATA=(X++(Y..Y))
599.84+444469845+440459599+435514063+429674787+423199873+416498318+409923995
606.59+403586176+397341728+390997047+384544257+378230549+372411935+367303656
613.34+362812266+358585053+354265781+349795953+345500755+341867332+339220683
620.09+337623432+337017455+337378829+338694428+340875495+343726210+347012097
626.84+350523612+354099850+357641739+361137317+364642120+368208908+371814583
633.59+375381371+378870499+382349053+385947978+389771181+393843675+398129123
640.34+402560665+407047556+411490348+415816144+420016583+424150537+428317902
647.10+432614862+437092678+441738637+446509954+451409516+456541156+462064282
653.85+468063789+474447432+480924071+487076047+492468978+496794887+500004839
660.60+502353599+504303374+506323834+508761653+511921694+516315213+522817688
667.35+532167167+543354675+553228084+559762171+563638697+566229697+568257282
674.10+569830347+570837333+571239993+571145196+570704438+570029539+569194034
680.85+568263657+567291469+566292245+565225036+563997933+562479241+560523016
687.60+558000301+554832347+550982782+546420333+541089575+534929274+527909055
694.35+520043657+511364465+501891579+491643109+480680743+469144160+457224380
701.10+445096221+432873865+420635909+408502162+396684866+385471071+375137668
707.85+365866786+357695699+350502950+344038611+338012892+332229264+326694851
714.60+321629208+317343685+314072386+311852602+310513679+309771020+309371960
721.35+309217203+309368848+309944263+310996641+312475378+314275591+316317387
728.10+318592650+321159539+324109663+327535607+331504154+336040730+341121598
734.85+346678622+352614644+358819869+365185999+371612465+378001470+384242318
741.60+390201665+395736340+400719673+405064594+408720179+411650991+413821146
748.35+415189356+415711973+415336238+413990677+411597894+408110865+403562064
755.11+398091512+391935673+385386924+378743529+372270453+366173562+360590738
761.86+355591843+351183662+347324197+343952214+341022789+338525647+336480401
768.61+334915848+333859477+333344659+333417406+334125904+335505588+337572322
775.36+340329628+343773684+347883488+352614382+357901829+363674282+369852995
782.11+376333909+382969130+389564639+395901408+401771321+407011445+411530696
788.86+415314226+418399270+420834839+422647632+423820625+424287182+423937358
795.61+422637282+420271461+416793432+412257306+406811502+400663651+394045980
802.36+387195442+380345618+373706423+367438051+361630498+356306865+351458901
809.11+347093881+343265128+340057351+337539773+335723605+334568162+334025970
815.86+334078843+334727793+335951521+337685455+339841622+342341914+345130044
822.61+348162440+351394066+354775311+358248503+361738419+365154876+368411288
829.36+371447922+374232077+376740544+378944559+380808837+382292881+383350490
836.11+383926730+383963854+383410263+382212634+380312769+377658246+374233990
842.86+370085374+365309820+360047084+354489910+348911736+343647876+339000154
849.61+335105066+331853678+328930141+325959617+322683968+319078256+315346399
856.36+311817429+308823431+306639721+305508314+305695451+307533199+311453824
863.12+318013260+327803384+341095499+357228167+374089695+388280351+396282994
869.87+396204847+388928063+377737743+366645856+358597352+354594343+353970967
876.62+355347914+357594866+360324573+363845126+368752938+375383583+383307292
883.37+391144003+397028053+399698438+399514507+398387000+398359889+399827020
890.12+400902516+398668615+391481603+380452639+368873233+360227227+356490008
896.87+357765372+363030732+371116547+381245508+393056093+406422155+421324458
903.62+437787714+455805847+475234339+495700791+516545266+536799177+555228107
910.37+570486797+581373079+587100572+587475707+582924169+574368910+563000959
917.12+550013107+536387893+522807676+509686780+497260206+485665051+474993973
923.87+465329919+456763748+449386281+443262841+438410377+434791129+432315661
930.62+430835030+430136020+429951039+429984638+429933452+429489094+428344713
937.37+426217983+422895273+418268700+412352777+405282048+397296167+388713759
944.12+379886560+371152770+362806566+355092212+348201664+342270629+337365704
950.87+333480141+330542466+328434860+327015914+326150185+325734401+325711152
957.62+326058463+326764674+327809459+329158019+330766670+332586063+334564637
964.37+336650307+338800399+340991290+343225455+345534166+347970373+350595722
971.13+353467774+356637415+360166442+364140690+368673066+373885516+379880748
977.88+386724310+394438327+403002736+412364664+422457589+433232576+444695436
984.63+456928592+470091899+484400375+500089023+517380584+536473239+557554518
991.38+580818100+606457066+634610948+665283497+698262956+733085245+769059264
998.13+805354647+841136224+875681623+908402792+938735229+965935560+988924503
1004.88+1006287986+1016496295+1018277401+1011016480+995020569+971530795
1010.66+942490034+910182924+876902201+844721461+815386787+790293050+770513459
1017.42+756855733+749920374+750137565+757772872+772888692+795267909+824305519
1024.17+858896292+897354516+937428329+976449331+1011628081+1040434026
1029.95+1060954889+1072122935+1073741823+1066336382+1050931898+1028854695
1035.74+1001587542+970642829+937442353+903219291+868967581+835436367+803148606
1042.49+772432560+743462672+716313863+691007809+667542635+645911365+626109462
1049.24+608140227+592008683+577708607+565210712+554464749+545411809+537991069
1055.99+532139493+527784260+524840998+523219673+522833550+523607933+525482149
1062.74+528409699+532345585+537224860+542944891+549369482+556352164+563762967
1069.49+571488983+579418991+587422422+595344068+603011211+610244871+616878666
1076.24+622778053+627857533+632073796+635412818+637874898+639473012+640233408
1082.99+640190809+639382040+637845574+635617335+632723496+629171632+624958331
1089.74+620089518+614587467+608477676+601758272+594383055+586269416+577325934
1096.49+567481849+556719837+545095096+532744120+519877801+506765267+493727167
1103.24+481138863+469428212+459055097+450469089+444048548+440020003+438357092
1110.00+438679242+440201908+441807747+442259379+440494022+435875399+428297278
1116.75+418110344+405946823+392537712+378593010+364745054+351516161+339285706
1123.50+328257791+318461105+309787800+302064934+295119676+288823986+283103393
1130.25+277924467+273271645+269126348+265456983+262225094+259400496+256969464
1137.00+254930518+253276794+251984987+251017899+250341369+249938597+249809977
1143.75+249963252+250397804+251093234+252003924+253057690+254153323+255164959
1150.50+255954172+256388312+256362607+255819815+254757874+253225702+251307913
1157.25+249106279+246720452+244235966+241724199+239244382+236847118+234564974
1164.00+232402413+230331462+228303596+226268811+224192403+222062298+219885750
1170.75+217680047+215463263+213248017+211044283+208863517+206722836+204636060
1177.50+202606019+200622027+198668164+196736763+194832736+192968177+191151315
1184.25+189380389+187643568+185925028+184213350+182505122+180803175+179111915
1191.00+177433404+175771299+174132668+172529267+170973771+169475497+168042171
1197.75+166679754+165387779+164157413+162975403+161834115+160736326+159687979
1204.50+158689279+157733047+156810498+155916533+155050541+154212926+153410645
1211.25+152658995+151978528+151386538+150888801+150478904+150139861+149846566
1218.01+149570304+149294634+149025685+148785909+148595286+148452754+148340089
1224.76+148237127+148136416+148041385+147962244+147910562+147893631+147910262
1231.51+147951210+148005208+148070849+148153056+148250927+148348967+148422464
1238.26+148451113+148425895+148344561+148209819+148029892+147818156+147584015
1245.01+147327628+147040905+146718192+146360418+145969411+145547890+145102791
1251.76+144651478+144214329+143801282+143408213+143022943+142630305+142212365
1258.51+141747711+141223650+140647241+140043148+139437453+138846157+138282825
1265.26+137767454+137321596+136958395+136678290+136479285+136361577+136321060
1272.01+136344084+136416700+136536714+136712910+136954485+137263905+137644346
1278.76+138101051+138631534+139215386+139820950+140422034+141000918+141535769
1285.51+141989502+142325517+142533006+142634983+142673353+142692356+142739126
1292.26+142867249+143130686+143571631+144219682+145099670+146227486+147591843
1299.01+149142755+150803032+152488892+154120436+155625741+156951493+158077172
1305.76+159011186+159764869+160333216+160705090+160888701+160915044+160818823
1312.51+160625780+160362090+160061071+159747395+159416302+159044260+158627444
1319.26+158201686+157819069+157510906+157282502+157133277+157059714+157040008
1326.02+157031515+156998572+156935556+156858628+156778850+156695537+156617953
1332.77+156574501+156594497+156687719+156850884+157090781+157428447+157878148
1339.52+158431346+159078683+159838760+160742138+161805635+163036056+164450727
1346.27+166083021+167960574+170087567+172448870+175030271+177823258+180816693
1353.02+183988790+187299594+190672365+193973719+197041739+199763141+202133556
1359.77+204256931+206290122+208377385+210597375+212974728+215581553+218669072
1366.52+222721560+228373024+236131514+246069083+257852912+271105335+285445628
1373.27+299794134+311597012+317563202+315910115+307364981+294078716+278487526
1380.02+262933648+249392749+239031972+232010891+227785928+225629123+224980117
1386.77+225503803+226934298+228945009+231241514+233713213+236446464+239636580
1393.52+243473657+247998440+253026322+258302988+263746223+269403969+275194890
1400.27+280865029+286259628+291562262+297257637+303851066+311482323+319789041
1407.02+328338563+337156425+346704234+357464296+369572581+382728164+396386752
1413.77+410057640+423548985+437135539+451592771+467688991+484774986+500065061
1420.52+510998967+517421795+520462029+521057993+519805354+517240977+513815446
1427.27+509694992+504834578+499375688+493979570+489604500+486858893+485811558
1434.03+486447384+489102994+494307720+501861542+510312331+518138543+524786775
1440.78+530244428+534434442+537115927+538026355+536932897+533549326+527597892
1447.53+519204739+509243322+498973216+489284825+480488825+472623014+465640482
1454.28+459281551+452791338+444937189+435507276+427236668+422542824+420597136
1461.03+419760018+418979935+417576702+415070973+411483335+407613409+404466267
1467.78+402446670+401435783+401312301+402275639+404901925+409761176+416539829
1474.53+423956744+430974000+437213498+442484933+446564777+449238274+450358731
1481.28+449916698+448103868+445248952+441610804+437215448+431816068+424886071
1488.03+415738672+404321785+392416630+382681853+376103931+371909229+368928656
1494.78+366247509+363338895+360227490+357572179+356127922+356053750+357014201
1501.53+358614452+360552790+362588512+364421704+365371355+363858025+358404572
1508.28+351049642+344800994+339730889+335066930+330511005+326052239+321629733
1515.03+317024648+312054344+306937385+302295381+298540782+295415239+292285328
1521.78+288918501+285856031+283650797+282173822+280971918+279813419+278815020
1528.53+278172801+277893549+277805521+277697769+277426017+276999977+276598011
1535.28+276395913+276416200+276545645+276527870+275825878+273667967+269998921
1542.04+265928733+261962042+257920953+253910369+250141351+246509522+242604197
1548.79+238022492+232731220+227166508+221874655+217064433+212630678+208496087
1555.54+204726563+201164237+196781537+189997278+182025178+176526539+173745027
1562.29+172057498+170471759+168682009+166746670+164830288+162981983+161057464
1569.04+158888228+156606900+154643288+153258944+152340914+151576749+150616842
1575.79+149239230+147617567+146202174+145156133+144314825+143501434+142645745
1582.54+141756457+140871013+140027221+139252678+138558543+137933573+137356311
1589.29+136821356+136346446+135949561+135623324+135338616+135066442+134787631
1596.04+134480377+134121882+133704382+133241340+132750690+132235779+131697825
1602.79+131161736+130678632+130291947+130010164+129821181+129722447+129726628
1609.54+129839152+130043622+130317634+130651249+131042837+131482827+131944096
1616.29+132381808+132756287+133063419+133324868+133553028+133739199+133853176
1623.04+133857957+133754368+133597417+133445492+133310291+133175043+133038408
1629.79+132934743+132899578+132938793+133025602+133110873+133126257+132996540
1636.54+132719576+132406219+132150507+131968424+131846853+131774762+131750510
1643.29+131776675+131850012+131946299+132021268+132057511+132117199+132262769
1650.05+132492250+132783061+133133101+133544488+133954488+134286566+134566502
1656.80+134852260+135169348+135504744+135808154+135986966+135912822+135489623
1663.55+134760810+133889765+132991534+132030606+130814096+129050314+126595039
1670.30+123830861+121424541+119594667+118077757+116566002+114983385+113499885
1677.05+112310534+111441177+110793024+110258744+109756188+109181448+108352852
1683.80+107122805+105719178+104615811+103907360+103363827+102776769+102087236
1690.55+101368060+100724997+100195677+99729701+99227192+98601923+97849477
1697.30+97052913+96258431+95419307+94546800+93793098+93277343+92961333+92718652
1705.01+92434694+92070658+91683654+91358607+91130372+90982187+90887325+90833664
1712.73+90821281+90847042+90885909+90879113+90748515+90486859+90203417+89991972
1720.44+89855327+89755900+89658385+89545392+89427675+89335700+89300292+89334716
1728.16+89436656+89596437+89803842+90051745+90340033+90668174+91008802+91307046
1735.87+91532694+91696825+91815639+91891386+91912995+91865241+91737924+91532628
1743.59+91263286+90951607+90616932+90260790+89855965+89347437+88686328+87901774
1751.30+87120191+86465991+85971507+85591094+85253841+84907954+84552262+84225040
1759.02+83950597+83702807+83431524+83125085+82835531+82626279+82511346+82464211
1766.73+82452689+82454799+82457189+82446230+82399582+82289102+82106146+81884895
1774.45+81680528+81526812+81427572+81371362+81340763+81318451+81293112+81261116
1782.16+81225258+81190319+81162532+81150889+81166114+81218171+81312761+81448065
1789.88+81607181+81749113+81817848+81790258+81710227+81639964+81608090+81609422
1797.59+81627749+81639467+81613143+81524075+81380690+81229608+81120993+81073361
1805.31+81075114+81104578+81145555+81189053+81228980+81260207+81279219+81287506
1813.02+81289821+81294874+81313745+81357253+81428060+81518816+81618196+81723773
1820.74+81839119+81962405+82080310+82177150+82254125+82328428+82410475+82479801
1828.45+82490057+82403660+82232282+82039230+81883705+81782459+81717596+81658001
1836.17+81575663+81463018+81343707+81255923+81222943+81234173+81254385+81241261
1843.88+81172282+81066621+80968552+80899658+80848454+80792131+80720106+80642952
1851.60+80584052+80561890+80578296+80619881+80671292+80722768+80764148+80779438
1859.31+80753414+80684688+80595760+80517013+80475146+80483424+80541903+80630540
1867.03+80699135+80672126+80506842+80251842+80005168+79827649+79726600+79686027
1874.74+79686870+79709435+79730519+79731362+79708657+79672508+79633688+79591718
1882.46+79537842+79469191+79396819+79341068+79315916+79321034+79337140+79337356
1890.17+79303101+79241462+79177724+79135220+79124148+79142007+79179759+79224438
1897.89+79260587+79279702+79287829+79308566+79361027+79440814+79513674+79539248
1905.60+79496650+79396819+79268640+79143479+79045017+78981991+78949367+78937883
1913.32+78942711+78964207+79002231+79049010+79097046+79149507+79215476+79285589
1921.03+79323200+79284051+79160147+78995294+78852602+78763056+78712648+78671409
1928.75+78618911+78552553+78480879+78418660+78378414+78358259+78337827+78289468
1936.46+78208996+78124962+78080184+78093964+78143505+78174291+78132236+78000841
1944.18+77809519+77602068+77402842+77210151+77014071+76818024+76643539+76513859
1951.89+76427786+76354926+76258110+76119885+75951582+75771228+75582943+75375572
1959.61+75138928+74872969+74584826+74283370+73978024+73686144+73436348+73264070
1967.32+73199151+73241641+73349684+73449168+73471535+73386676+73221579+73043625
1975.04+72925514+72906784+72983665+73120446+73273543+73413361+73535217+73648304
1982.75+73762379+73875146+73983044+74092483+74219435+74371571+74527148+74639850
1990.47+74662448+74577363+74412571+74225219+74069548+73969591+73916545+73881001
1998.18+73833050+73753740+73638690+73485119+73282533+73024890+72728600+72441230
2005.90+72221507+72102374+72074817+72101047+72143360+72183230+72214616+72230694
2013.61+72217677+72158317+72044410+71885988+71721810+71609268+71600924+71717151
2021.33+71932041+72186572+72411371+72554696+72594027+72535131+72405034+72246073
2029.04+72110235+72049421+72099726+72267508+72530954+72845019+73157987+73421442
2036.76+73605940+73708512+73752137+73777294+73828381+73937319+74111584+74337546
2044.47+74600237+74896687+75235224+75610449+75978328+76264395+76409482+76408296
2052.19+76312595+76188470+76076795+75983498+75904030+75849010+75844749+75908848
2059.90+76026655+76158232+76261953+76322860+76355972+76391670+76450632+76534329
2067.62+76627883+76712363+76773302+76804750+76809709+76802022+76804328+76836544
2075.33+76902382+76983037+77046784+77068032+77044408+76999044+76964236+76962909
2083.05+76994989+77041403+77080964+77101377+77097534+77060626+76975978+76833680
2090.76+76650317+76473056+76362890+76360795+76466700+76639836+76821240+76959342
2098.48+77030496+77038117+77003375+76952911+76909788+76890078+76902030+76942566
2106.19+76998064+77047065+77072297+77068594+77041473+77001561+76957317+76913355
2113.91+76871282+76828369+76782105+76732209+76684623+76645212+76612302+76574363
2121.62+76521893+76456219+76389922+76328799+76261461+76164377+76017927+75822339
2129.34+75598580+75378361+75194754+75071665+75016125+75014451+75032872+75032732
2137.05+74979151+74850714+74644734+74382380+74105795+73865805+73697155+73602663
2144.77+73555842+73515151+73443318+73314782+73118772+72852190+72516616+72111280
2152.48+71635142+71104017+70569878+70129561+69908844+70007737+70439669+71105756
2160.20+71843479+72520098+73090634+73576672+73994959+74312933+74463546+74403159
2167.91+74161012+73836185+73550475+73390928+73376228+73466937+73599251+73722659
2175.63+73817019+73883438+73931671+73968893+74002281+74037623+74079167+74125388
2183.34+74179836+74255410+74366340+74508249+74652965+74767701+74841156+74890964
2191.06+74941756+75000497+75054012+75089106+75111647+75143606+75203055+75285121
2198.77+75362588+75400485+75383807+75331811+75292658+75316038+75419890+75582456
2206.49+75756918+75900538+75989990+76018902+75990689+75918696+75828831+75755310
2214.20+75728499+75760546+75844121+75953120+76055983+76126171+76150756+76136858
2221.92+76106545+76089788+76114092+76194897+76326493+76482351+76627185+76738987
2229.63+76821662+76890781+76954031+77000511+77016096+77002330+76978841+76967100
2237.35+76977726+77008339+77057617+77123605+77198128+77261187+77291879+77286287
2245.06+77264754+77260348+77298175+77378510+77476893+77560041+77606685+77621370
2252.78+77630463+77663054+77733134+77837216+77961524+78092774+78216903+78319631
2260.49+78389265+78426009+78447426+78478639+78538486+78628150+78731754+78825575
2268.21+78889988+78915056+78904903+78874652+78846012+78840481+78871642+78939140
2275.92+79027093+79111408+79170515+79192011+79179477+79149572+79126670+79139841
2283.64+79209870+79343309+79528101+79740896+79961079+80181523+80409514+80657333
2291.35+80933407+81237051+81560289+81889742+82212473+82522240+82823306+83128104
2299.07+83448745+83788744+84147718+84530513+84957734+85462042+86067850+86773573
2306.78+87547928+88341969+89112771+89837290+90511842+91145315+91754217+92368631
2314.50+93033461+93799276+94704425+95762916+96964220+98277738+99653064
2321.25+101015611+102271916+103340775+104195742+104881085+105487287+106102722
2328.00+106768641+107459542+108098602+108608742+108971203+109243864+109517238
2334.75+109853497+110258669+110708389+111182821+111677877+112171068+112581789
2341.50+112754236+112462647+111459570+109637571+107225917+104773745+102858778
2348.25+101844601+101858401+102881615+104803932+107426272+110466496+113616759
2355.00+116632750+119351161+121637204+123380222+124553008+125225151+125484294
2361.75+125346646+124765475+123688385+122111739+120093689+117736717+115163378
2368.50+112481931+109769229+107068920+104405153+101797981+99274347+96866836
2375.25+94604482+92501197+90550129+88730201+87020933+85411954+83906987+82519287
2382.97+81267219+80170311+79243637+78493690+77914163+77486544+77185965+76989257
2390.68+76878406+76839201+76854998+76903708+76962276+77013720+77053562+77089701
2398.40+77133392+77189457+77250631+77301596+77327048+77322783+77298803+77275099
2406.11+77270346+77290829+77326837+77360188+77377948+77379420+77377179+77385570
2413.83+77413469+77462418+77527450+77601088+77672635+77729989+77765243+77777130
2421.54+77769855+77747895+77712712+77666064+77615497+77573184+77553183+77562975
2429.26+77598224+77645500+77686416+77707748+77708728+77703478+77715023+77760626
2436.97+77843024+77948371+78055692+78144620+78200531+78217531+78200531+78167780
2444.69+78145323+78157215+78211025+78295627+78384784+78456243+78499989+78519934
2452.40+78526023+78523646+78511605+78486340+78449873+78411938+78387166+78385553
2460.12+78403473+78426567+78436575+78424116+78394164+78363930+78348533+78353923
2467.83+78374918+78403749+78435525+78467933+78496136+78512654+78511258+78492986
2475.55+78466602+78443573+78433148+78440845+78468983+78515734+78576144+78644326
2483.26+78715442+78784336+78846087+78895163+78928706+78950417+78967357+78987803
2490.98+79016030+79050060+79086050+79118898+79147266+79172334+79200767+79238875
2498.69+79289582+79349543+79411322+79470241+79527755+79588427+79655615+79726319
2506.41+79793732+79852661+79902356+79947973+79994443+80045047+80099720+80157693
2514.12+80221131+80296850+80391215+80504667+80626753+80737355+80817452+80857997
2521.84+80865572+80855963+80850282+80865291+80908714+80978443+81064727+81153627
2529.55+81235158+81308552+81380549+81460346+81551796+81651054+81747716+81829922
2537.27+81888542+81920069+81926388+81912907+81887708+81857446+81829013+81808792
2544.98+81804367+81819817+81851475+81888401+81916563+81926463+81917125+81894514
2552.70+81867271+81842485+81824654+81816442+81817707+81824373+81831047+81833222
2560.41+81834207+81845438+81881033+81943665+82020968+82087331+82123911+82131223
2568.13+82128833+82137748+82163032+82189084+82194568+82170550+82127914+82090134
2575.84+82077010+82092459+82123986+82151726+82163032+82158260+82150038+82151510
2583.56+82166613+82189440+82209174+82221529+82228420+82234944+82243513+82253206
2591.27+82262272+82273155+82288042+82303707+82312482+82306239+82284677+82258690
2598.99+82241554+82241132+82251734+82260368+82256647+82240991+82226235+82230735
2606.70+82266837+82335450+82424940+82516971+82595859+82653757+82691621+82715301
2614.42+82731529+82745094+82761321+82786126+82824703+82879592+82948317+83024224
2622.13+83098658+83165434+83222441+83270242+83310244+83341311+83359667+83360998
2629.85+83345952+83321278+83297372+83280648+83270383+83260539+83248165+83237759
2637.56+83240787+83264758+83305247+83346655+83374713+83384275+83384697+83390041
2645.28+83409024+83437495+83462525+83472584+83466538+83454651+83450432+83459994
2652.99+83478134+83492131+83491212+83474056+83448745+83426180+83415493+83418024
2660.71+83431167+83449382+83467447+83484040+83500774+83522429+83551266+83584386
2668.42+83615398+83640006+83661315+83688107+83731784+83797397+83881169+83969872
2676.14+84049997+84113594+84164105+84212581+84267676+84329877+84392293+84447819
2683.85+84494692+84535725+84575136+84613703+84651642+84688813+84727174+84766950
2691.57+84804674+84833960+84850788+84856984+84860153+84871000+84898167+84946044
2699.28+85012650+85090535+85168766+85237642+85294752+85347156+85408223+85489445
2707.00+85593841+85715936+85849178+85992019+86151163+86338449+86566253+86845158
2714.71+87182551+87583570+88051449+88590247+89204868+89898966+90667190+91482905
2722.43+92293493+93023252+93588487+93920302+93983131+93782101+93358583+92777149
2730.14+92111690+91433116+90799119+90246503+89791889+89435662+89172000+88995738
2737.86+88900623+88873343+88893555+88938637+88990788+89041880+89091350+89140614
2745.57+89190093+89241757+89298023+89364471+89446199+89544539+89659650+89789836
2753.29+89934608+90091999+90257471+90423674+90583108+90732156+90871538+91005549
2761.00+91138303+91273626+91413711+91561812+91720205+91887130+92057336+92222752
2768.72+92375643+92512325+92636473+92760416+92901185+93074607+93286145+93529024
2776.43+93788560+94049654+94306547+94563140+94828255+95107572+95400258+95700556
2784.15+96001219+96301892+96605931+96920084+97252556+97611126+98001739+98423561
2791.86+98870515+99333482+99806423+100289995+100789570+101312094+101860613
2798.62+102435813+103033503+103645339+104259734+104866526+105463250+106054124
2805.37+106645252+107237916+107828237+108417087+109015967+109649027+110340528
2812.12+111100831+111921412+112782482+113669735+114584634+115544888+116574842
2818.87+117693621+118911950+120236492+121675725+123241599+124948402+126809953
2825.62+128843537+131071186+133519683+136212511+139162635+142372118+145837791
2832.37+149560892+153546633+157797395+162305641+167053877+172022812+177201025
2839.12+182588500+188191460+194018999+200080772+206385087+212927948+219663833
2845.87+226467385+233108586+239259550+244548216+248644184+251334162+252556915
2852.62+252382584+250961426+248476865+245121888+241095705+236602009+231840216
2859.37+226991146+222205186+217602781+213281578+209324393+205800484+202758151
2866.12+200213855+198147740+196507347+195223715+194228766+193469589+192912210
2872.87+192536043+192324364+192257879+192312627+192470327+192725636+193086635
2879.62+193567497+194176793+194912552+195771513+196756038+197874845+199133596
2886.37+200525449+202031823+203633836+205322228+207096284+208957994+210905782
2893.12+212936817+215058316+217291843+219667827+222213154+224940181+227846844
2899.87+230927408+234185826+237638506+241307459+245200316+249294465+253532253
2906.63+257830638+262100149+266263033+270260904+274052703+277602448+280869922
2913.38+283804916+286352324+288464375+290119580+291333633+292158245+292665432
2920.13+292920216+292960583+292788634+292373600+291663302+290593430+289103331
2926.88+287149975+284721756+281841023+278555267+274926194+271021769+266916089
2933.63+262695120+258453920+254291580+250299089+246550002+243095634+239968948
2940.38+237194186+234798571+232823279+231322811+230356942+229972825+230189605
2947.13+230992261+232340447+234186070+236489494+239222652+242355338+245838617
2953.88+249589673+253485511+257356356+260982223+264083841+266333605+267390708
2960.63+266955500+264829200+260951362+255406056+248400406+240230801+231248526
2967.38+221823432+212303128+202976486+194058222+185696943+177995657+171024656
2974.13+164816732+159358048+154586778+150411772+146739875+143494225+140619529
2980.88+138068905+135788974+133712332+131761975+129862851+127954128+125998296
2987.63+123984521+121925503+119852835+117809998+115836730+113960133+112187304
2994.38+110509525+108918227+107415772+106018519+104748509+103616690+102616903
3001.13+101729340+100931380+100205745+99540746+98925207+98347157+97796116
3007.88+97267293+96766265+96306589+95907839+95588360+95356328+95207497+95127325
3015.60+95100823+95122066+95198188+95342463+95560705+95842057+96164319+96506381
3023.31+96861999+97241803+97655571+98097295+98543247+98964571+99344610+99682172
3031.03+99982863+100249009+100477798+100663706+100796217+100855361+100810925
3037.78+100635995+100322985+99889220+99364868+98777810+98146746+97488478
3044.53+96822213+96165876+95524228+94886228+94238656+93584446+92948208+92363100
3052.25+91853119+91425176+91074012+90792182+90574681+90412846+90290292+90183046
3059.96+90067447+89928393+89764102+89583641+89400245+89224864+89063582+88919419
3067.68+88798805+88711405+88667748+88670073+88703277+88735076+88728570+88662732
3075.39+88546730+88415495+88310049+88252067+88236533+88241333+88246273+88245214
3083.11+88240836+88237020+88232436+88224524+88213434+88208278+88222687+88267957
3090.82+88345429+88443037+88539240+88612072+88646898+88640196+88600700+88546805
3098.54+88501245+88484220+88502445+88545390+88588269+88606775+88588551+88538115
3106.25+88472633+88413301+88376928+88370853+88391196+88425385+88459284+88482448
3113.97+88491073+88485064+88466774+88440994+88415776+88400805+88404470+88430822
3121.68+88480330+88545174+88611650+88662442+88682794+88670785+88637439+88601197
3129.40+88577882+88573926+88585870+88606137+88627193+88641461+88643233+88628749
3137.11+88603456+88580357+88578304+88610806+88675519+88752522+88814414+88842894
3144.83+88837879+88813073+88782906+88753085+88720658+88683141+88648389+88630230
3152.54+88641255+88684200+88747507+88813430+88865993+88899282+88917929+88930866
3160.26+88944075+88957996+88970577+88982164+88997576+89024143+89067182+89127114
3167.97+89200555+89281908+89362146+89432906+89487129+89523334+89545673+89559951
3175.69+89571688+89581522+89587250+89589087+89591140+89601818+89629173+89675493
3183.40+89738360+89808369+89872726+89921250+89948755+89959939+89964110+89971319
3191.12+89986600+90011002+90045379+90090584+90142294+90187855+90210560+90199311
3198.83+90160903+90116045+90088249+90090368+90122626+90175752+90236734+90295748
3206.55+90346896+90388997+90423815+90453035+90473988+90480494+90467407+90439592
3214.26+90411928+90403997+90426646+90474691+90530245+90575609+90606461+90633075
3221.98+90670021+90724019+90788151+90850370+90901199+90937020+90955919+90954785
3229.69+90933054+90896596+90857026+90823971+90800394+90786941+90784401+90797844
3237.41+90832465+90884278+90942898+90994721+91030541+91050509+91063109+91081239
3245.12+91120247+91188720+91284032+91392393+91492045+91565074+91604026+91611675
3252.84+91599704+91583064+91576970+91595242+91644899+91722971+91814149+91900095
3260.55+91969468+92023531+92072429+92125021+92181082+92231405+92262088+92264572
3268.27+92240686+92202765+92169101+92155067+92167610+92205456+92261882+92328085
3275.98+92393652+92446609+92478867+92492479+92498854+92509560+92526078+92537852
3283.70+92534018+92512250+92482551+92458233+92446112+92444546+92449234+92456180
3291.41+92462771+92467308+92464824+92453199+92433063+92412504+92398826+92393511
3299.13+92390249+92377133+92350341+92316245+92289096+92279103+92286687+92302849
3306.84+92316808+92319864+92308089+92280950+92244154+92213396+92207865+92242598
3314.56+92317379+92413929+92504169+92562311+92577554+92556423+92516366+92475464
3322.27+92441500+92413573+92387483+92364796+92353172+92358843+92379899+92406129
3329.99+92427466+92440937+92452487+92467730+92483545+92488785+92472839+92439090
3337.70+92408538+92406767+92444903+92508847+92571667+92611724+92626968+92635123
3345.42+92655401+92693696+92738085+92767793+92766659+92735104+92693696+92670719
3353.13+92691071+92762337+92871186+92993179+93103406+93187955+93246556+93287280
3360.85+93320907+93351918+93377239+93390513+93387392+93375261+93369936+93387251
3368.56+93434855+93507303+93594449+93684933+93770889+93847049+93908950+93956085
3376.28+93991859+94024661+94063781+94117235+94187461+94274373+94374429+94482387
3383.99+94590420+94689370+94772270+94838061+94891909+94941435+94989686+95036438
3391.71+95082486+95135715+95209409+95311546+95434091+95556936+95660451+95738804
3399.42+95805721+95882161+95984936+96118721+96276853+96449102+96624070+96792889
3407.14+96946492+97078187+97185199+97274774+97360364+97458920+97579571+97719610
3414.85+97870429+98025392+98186017+98360694+98556728+98770329+98988748+99197869
3422.57+99393124+99581132+99773950+99981729+100207817+100451520+100707495
3429.32+100969460+101230197+101483134+101727765+101968956+102211403+102454272
3436.07+102686744+102893849+103064495+103196434+103294155+103363181+103408151
3442.82+103431494+103432000+103403135+103335685+103224427+103076523+102908951
3449.57+102736045+102563805+102389380+102209406+102021088+101819074+101598086
3456.32+101358629+101105927+100847149+100578069+100282646+99945890+99566076
3463.07+99159639+98752358+98364191+98004374+97672380+97363636+97074203+96802067
3470.78+96549073+96315485+96100506+95901651+95719755+95558071+95416607+95289937
3478.50+95163220+95021307+94855113+94669477+94481815+94314000+94180430+94082024
3486.21+94011030+93958073+93919243+93897869+93900644+93930811+93987743+94068253
3493.93+94166518+94279135+94405684+94555612+94741155+94967300+95223199+95486411
3501.64+95734614+95960037+96172278+96389761+96623077+96869611+97116923+97345768
3509.36+97535632+97669887+97741837+97751315+97696529+97573309+97378523+97114495
3517.07+96792101+96428394+96038127+95623909+95169754+94650652+94060088+93426128
3524.79+92803323+92230336+91705187+91200054+90697760+90209998+89762190+89370339
3532.50+89032768+88738601+88473627+88223821+87980633+87751339+87558653+87422308
3540.22+87342080+87296781+87254089+87184173+87068762+86911812+86744025+86606236
3547.93+86518658+86464295+86405638+86309829+86169415+86005481+85856012+85751588
3555.65+85702268+85698818+85719320+85738688+85740807+85732070+85737282+85780405
3563.36+85867430+85977357+86062066+86057276+85936277+85767506+85654635+85636036
3571.08+85678662+85728826+85750031+85742635+85740029+85784774+85903644+86099002
3578.79+86357274+86656156+86971838+87290997+87619494+87976612+88379899+88827351
3586.51+89290749+89727888+90119514+90493299+90898434+91376878+91958134+92649664
3594.22+93425490+94227153+94996436+95702618+96336822+96896094+97389847+97854258
3601.94+98343445+98904170+99565861+100358327+101328462+102530178+103984232
3608.69+105644987+107463929+109511557+112027289+115322484+119584992+124729186
3615.44+130509786+136748937+143266506+149405161+153763984+155066909+153417994
3622.19+150001978+145953334+141924751+138181110+134706868+131256420+127550324
3628.94+123804884+120898211+119374410+118968460+119231784+119915280+120941212
3635.69+122305297+124016554+126067969+128427903+131041581+133837342+136726860
3642.44+139610349+142407882+145106138+147773936+150490266+153091897+154728391
3649.19+154056979+151200704+148069724+145767894+144107223+142514153+140483222
3655.94+137784666+134641068+131587457+129006628+126923058+125203608+123768557
3662.69+122633054+121843418+121408819+121271537+121312007+121356987+121195406
3669.45+120679941+119922114+119264192+118929893+118915071+119170108+119746058
3676.20+120798530+122452554+124726551+127621628+131159608+135350119+140178809
3682.95+145602216+151551531+157968932+164919759+172746609+182064645+193162025
3689.70+204749100+214079529+219534351+221461421+220601879+217269832+211602843
3696.45+203945768+194887709+184955934+174305012+162794697+150539980+138452581
3703.20+127882515+119551056+113202897+108172962+103904997+100042899+96281971
3709.95+92251673+87719578+83070047+79134170+76298346+74351697+72943204+71821078
3717.66+70847236+69964122+69168951+68482202+67908582+67422150+66988222+66591440
3725.38+66226635+65883542+65551066+65242964+64979471+64764904+64568004+64330235
3733.09+63987737+63501179+62891049+62255397+61712193+61312224+61028871+60804817
3740.81+60596719+60388517+60181459+59976366+59773241+59605097+59537267+59607572
3748.52+59787757+59973544+60007265+59806886+59481343+59182306+58960900+58806354
3756.24+58697402+58610387+58517883+58409713+58307605+58245629+58231544+58249955
3763.95+58283142+58321760+58359484+58382982+58376387+58330141+58248099+58144425
3771.67+58034100+57930032+57841840+57777141+57738475+57725224+57731608+57747268
3779.38+57755785+57748436+57736694+57745206+57786965+57848022+57893283+57895069
3787.10+57855096+57798365+57743490+57697752+57661566+57636704+57629153+57641443
3794.81+57677221+57742736+57843349+57975574+58122718+58258065+58341546+58334402
3802.53+58246590+58143741+58077720+58048523+58013832+57929685+57797676+57666234
3810.24+57581014+57555679+57583212+57650850+57747268+57858391+57965266+58061164
3817.96+58162771+58291044+58428266+58502761+58450671+58304305+58149783+58034507
3825.67+57960115+57907983+57858049+57796851+57718976+57634234+57570922+57566319
3833.39+57642474+57792253+57980655+58163798+58290355+58314200+58227006+58074626
3841.10+57913270+57766843+57632448+57510704+57417740+57375175+57395701+57477677
3848.82+57610610+57781125+57968632+58131099+58188397+58078339+57878860+57722683
3856.53+57642816+57615484+57625651+57672689+57762104+57891633+58040282+58162837
3864.25+58210999+58177058+58102863+58040624+58019466+58041585+58085552+58113784
3871.96+58094965+58019672+57898983+57762994+57650232+57585204+57569685+57591729
3879.68+57636291+57699472+57783530+57884218+57980861+58045570+58063569+58050857
3887.39+58044196+58066934+58114750+58159265+58155145+58068791+57912651+57739853
3895.11+57598938+57516470+57503083+57562546+57684707+57843349+58000163+58116329
3902.82+58159129+58107808+57972274+57800081+57644879+57536658+57477471+57456256
3910.54+57457353+57471977+57498278+57540436+57601343+57676467+57749603+57795618
3918.25+57795618+57754824+57698919+57656274+57639793+57641719+57641443+57622492
3925.97+57590421+57571541+57589189+57647143+57720279+57762788+57736694+57644190
3933.68+57530067+57443141+57404218+57406753+57431540+57460170+57479876+57479669
3941.40+57454405+57409983+57366935+57350117+57368378+57410738+57454747+57480837
3949.11+57483377+57470468+57454470+57442663+57435730+57431952+57430579+57428728
3956.83+57420281+57402774+57379225+57361375+57360963+57380734+57410738+57435660
3964.54+57443282+57432295+57405727+57369063+57325471+57281124+57245702+57230805
3972.26+57242135+57274533+57312360+57340643+57353070+57354509+57352521+57346821
3979.97+57328147+57289017+57232043+57172669+57127089+57100184+57085770+57072323
3987.69+57053447+57032649+57019885+57024413+57048778+57085292+57119543+57136497
3995.40+57129217+57103207+57071704+57050428
##END=
