##TITLE=Default
##JCAMP-DX=4.24
##DATA TYPE=INFRARED SPECTRUM
##DATE=19/9/2016
##SAMPLING PROCEDURE=ATR
##ORIGIN=Default
##XUNITS=1/CM
##YUNITS=ABSORBANCE
##RESOLUTION=4
##FIRSTX=599.84104
##LASTX=3998.2974
##DELTAX=0.96437467
##MAXY=0.22500801
##MINY=-0.00022594724
##XFACTOR=1
##YFACTOR=2.0955504e-010
##NPOINTS=3525
##FIRSTY=0.018830657
##XYDATA=(X++(Y..Y))
599.84+89860196+88906381+87559158+85592544+82630622+78345833+72732095+66192950
607.56+59340678+52622837+46107727+39594928+32936498+26260541+19929317+14300611
615.27+9551411+5702161+2764737+829659+0+289981+1560869+3548176+5951184+8555998
624.91+11322797+14350885+17709983+21323507+25011803+28641611+32232026+35932730
632.63+39906099+44210301+48732452+53193768+57240771+60616046+63305159+65545648
640.34+67692025+70040955+72736824+75804554+79200451+82801923+86384515+89654906
648.06+92375627+94502697+96228787+97893297+99815077+102173820+104981435
654.81+108148505+111577432+115211151+118994625+122835769+126617394+130268357
661.56+133807218+137319840+140929702+144847358+149478980+155454910+163197496
668.31+171844690+179271377+184488258+188417647+192341454+196997217+202548273
675.06+208769313+215299001+221885220+228465323+235084572+241780156+248526156
681.81+255228104+261764049+268043612+274066295+279909892+285659127+291332098
688.56+296864630+302169117+307204031+312012393+316702502+321365625+325948288
695.31+330102380+333088869+333815955+331066612+323877748+311912166+295645776
702.06+276247569+255239037+234126402+214188054+196446268+181715166+170537253
708.82+162918359+157985628+153903125+148334256+139394841+126597857+111131919
715.57+95228894+81060972+69922062+62082518+57150534+54541187+53751704+54379984
723.28+55999304+58086554+60083105+61577114+62471767+63017916+63669875+64865850
731.00+66870348+69743668+73403946+77700611+82459588+87511835+92718014+98003622
738.71+103359378+108806828+114349191+119943623+125512847+130989203+136336675
745.46+141553538+146657818+151673817+156619917+161465398+166058212+170065394
752.21+172986250+174267449+173478428+170449825+165306932+158413098+150267468
758.96+141413205+132362096+123533788+115217782+107579796+100700788+94625235
765.71+89384373+85000991+81473330+78767400+76828198+75605113+75078411+75265285
773.43+76198656+77897475+80340784+83472441+87215810+91496582+96251826+101438824
781.14+107020563+112951374+119140700+125434307+131614016+137441649+142727612
787.89+147400441+151525485+155267378+158800657+162225531+165533004+168623667
794.64+171346504+173508418+174864707+175131080+174059154+171555012+167750596
801.40+162978571+157660538+152185390+146836390+141783930+137111847+132852550
808.15+129014429+125607510+122671703+120292055+118581645+117641091+117502643
814.90+118113483+119356390+121104595+123271060+125824107+128777690+132152966
821.65+135933098+140035992+144317759+148614691+152783787+156717762+160317243
828.40+163481326+166131560+168266702+169967051+171322167+172320602+172795021
835.15+172478268+171131614+168652129+165091722+160599917+155350398+149508472
841.90+143251273+136791734+130359625+124115403+118074623+112118035+106117359
848.65+100086214+94228129+88822100+84057149+79944407+76382472+73294030+70711509
856.36+68759152+67576332+67263774+67878525+69454078+72027213+75660079+80468619
864.08+86659421+94572988+104729640+117839467+134694404+155890005+181410625
870.83+210249279+240267659+268432380+291376221+306146149+310924005+305528748
877.58+291546135+271971525+250418764+230121993+213081747+199663238+188816779
884.33+178838255+168352975+157049555+145798933+136147224+129508082+126551174
891.08+127056294+130224786+135164165+141262170+148290116+156313794+165538995
897.83+176211788+188573961+202850715+219236514+237877130+258856046+282164887
904.58+307637296+334851971+363024479+390944481+417006308+439369387+456255115
911.33+466326721+469032616+464781958+454838419+440979712+425048048+408567426
918.08+392536211+377416464+363257537+349893462+337135445+324906618+313296472
924.84+302548019+292993266+284972076+278751142+274471454+272130382+271592161
931.59+272604676+274801149+277697562+280712708+283225222+284647892+284503079
938.34+282473018+278429749+272443011+264769720+255817967+246102455+236193581
945.09+226667343+218054707+210797295+205216853+201513803+199785936+200062512
951.84+202341756+206614012+212875372+221134064+231403352+243682168+257911155
958.59+273889964+291191926+309106221+326667054+342763796+356307563+366394741
965.34+372433211+374222658+371978009+366288185+358007378+348119588+337606468
972.09+327362567+318140068+310520891+304915721+301577422+300625812+302067823
978.84+305806001+311645366+319317484+328526756+339009654+350596833+363247262
985.59+377036958+392097008+408533934+426373939+445556972+465991515+487614781
992.34+510443195+534588113+560242097+587650330+617077122+648763319+682886264
999.09+719518986+758564778+799637022+841890878+883853331+923357702+957697741
1005.84+984029533+999959988+1004124888+996543647+978602028+952706915+921787340
1012.59+888810879+856429027+826773336+801408337+781421493+767577648+760461813
1019.34+760558449+768248629+783750441+806991356+837447445+873963834+914623719
1026.09+956726540+996934318+1031623571+1057419275+1071827082+1073741823
1031.88+1063633383+1043313466+1015386212+982648960+947611416+912252746
1037.67+877964474+845635171+815779523+788654800+764322369+742686303+723531785
1044.42+706588744+691593083+678330764+666649757+656449516+647664904+640259017
1051.17+634209455+629506262+626144746+624111112+623374498+623884773+625582491
1057.92+628408843+632305025+637200993+643003026+649596782+656858817+664669099
1064.67+672925090+681542596+690455914+699605740+708921106+718314407+727700668
1071.42+737027127+746286389+755493812+764652526+773738140+782700879+791472335
1078.17+799969597+808112170+815851841+823199135+830198637+836886114+843247630
1084.92+849227861+854750722+859733656+864091048+867742473+870620308+872664751
1091.67+873781511+873824817+872623153+870035583+865973647+860385580+853231488
1098.42+844490892+834191881+822428247+809338508+795094180+779910934+764079320
1105.17+747992995+732142537+717072211+703285466+691104993+680495380+670934120
1111.92+661411046+650628995+637386444+620993001+601517783+579743909+556861880
1118.67+534084522+512367108+492302081+474136398+457835254+443168043+429811506
1125.43+417455501+405871558+394918561+384509545+374584423+365102343+356048336
1132.18+347429763+339262516+331559004+324327155+317564018+311248723+305334053
1138.93+299751390+294435010+289345289+284478582+279857485+275501977+271409145
1145.68+267546510+263873645+260363583+257014440+253837273+250833665+247983704
1152.43+245258077+242631859+240092572+237636286+235263570+232974087+230770717
1159.18+228652677+226615540+224648961+222736816+220857203+218982674+217090884
1165.93+215176001+213250025+211333542+209435014+207544148+205639398+203705352
1172.68+201742470+199766078+197800673+195861026+193945575+192034354+190104360
1179.43+188150652+186190349+184251786+182355250+180503938+178688962+176897222
1186.18+175116912+173338522+171556470+169776657+168014605+166288657+164607330
1192.93+162963762+161334345+159689728+158009752+156298559+154583563+152895410
1199.68+151243931+149617393+147996188+146368549+144723985+143050125+141329048
1206.43+139556827+137748678+135932085+134128273+132343377+130570302+128800801
1213.18+127027939+125250349+123473204+121704431+119950058+118202440+116447249
1219.93+114674548+112881688+111065539+109215551+107317397+105366657+103372408
1226.68+101354596+99338045+97349609+95411261+93528563+91682033+89842383
1233.44+87988147+86107361+84177625+82146817+79943571+77508823+74818358+71883414
1241.15+68737837+65425991+61999508+58508948+54998860+51503784+48054022+44675147
1248.87+41388757+38213297+35167157+32267313+29517838+26902091+24389843+21959627
1256.58+19605613+17327392+15121764+12985822+10933655+8993102+7192819+5553962
1264.30+4096716+2843765+1806922+976294+325820-161648-485192-644466-662216
1272.97-580290-434180-240738+0+171052+412199+746409+1190038+1736925+2358805
1282.62+3021021+3692731+4339090+4919052+5398101+5760488+6013306+6173434+6271234
1291.30+6360591+6521252+6833748+7359134+8142048+9228187+10660278+12447841
1299.01+14544149+16858031+19283580+21715600+24057677+26237315+28222471+30013411
1306.73+31598839+32928694+33934330+34578618+34876136+34875727+34640776+34251065
1314.44+33795934+33337355+32875478+32371639+31808494+31234941+30737217+30377087
1322.16+30170046+30105479+30163113+30305072+30481137+30658286+30836360+31036539
1329.87+31267642+31524184+31812325+32155104+32574947+33072414+33644198+34318751
1337.59+35160606+36231848+37541330+39055249+40744692+42607950+44650935+46881762
1345.30+49320342+52003375+54960710+58195199+61690239+65427777+69396302+73578091
1353.02+77941314+82427225+86930407+91282181+95292749+98842596+101948992
1359.77+104757941+107484093+110333858+113428877+116790775+120459960+124698885
1366.52+130092355+137446724+147435879+160199594+175376440+192566975+211397415
1373.27+230637797+247165244+256795692+257108446+248831052+234566208+217337791
1380.02+200047100+185117320+173966855+166797119+162988543+161742561+162501627
1386.77+164965398+168806256+173472864+178423443+183450411+188721227+194618635
1393.52+201518585+209493163+218131220+226825453+235295267+243611344+251785453
1400.27+259627129+267049105+274358712+282209490+291243764+301604657+312772046
1407.02+324127944+335621188+347739974+360997245+375506701+390903273+406583461
1413.77+422038591+437094908+452055869+467716183+484867927+502950875+519367748
1420.52+531734490+539968757+545249458+548573961+550494284+551321028+551192357
1427.27+550036878+547662207+544048754+539669247+535405613+531951762+529374325
1434.03+527195736+524684288+521279716+517253370+513684253+511257352+509715967
1440.78+508496953+507287111+506090639+504980954+503802222+502083137+499228021
1447.53+494859145+489070018+482309121+475042108+467594623+460188344+452885991
1454.28+445277230+435897511+421983482+402305249+382346493+368568211+360476659
1461.03+354848166+349319118+342394920+333257148+322339741+311568498+302855066
1467.78+296581209+291986866+288126524+284233684+279844223+275216619+271638933
1474.53+270323140+271150879+273239978+275837450+278478245+280819424+282499648
1481.28+283153190+282566437+280779372+277978263+274285594+269644266+263795123
1488.03+256402782+247644303+238948150+232135113+227660214+224709599+222188427
1494.78+219119914+214752460+208898127+202356848+196422464+191746240+188210045
1501.53+185521217+183455833+181762133+179942233+176872885+170599508+160658422
1508.28+151326843+145623295+142185231+139407410+136671614+133838177+130817271
1515.03+127426654+123515193+119274740+115251896+111787709+108538687+104765665
1521.78+100255062+95809247+92207384+89235365+86215855+82876791+79585797
1528.53+76852837+74771347+73002912+71042919+68492059+65413218+62480700+60368073
1536.25+59143530+58422773+57632481+56035969+53073373+49534423+47038094+45634375
1543.96+44610234+43752424+43114998+42651450+42197573+41609905+40878073+40121203
1551.68+39461822+38920845+38458720+38056574+37690978+37202293+36168881+34250523
1559.39+32293606+31473564+31483012+31658908+31720728+31622954+31411059+31135860
1567.11+30795721+30320698+29654944+28905460+28327391+28061650+28027678+28019731
1574.82+27807285+27267198+26581062+26093809+25894065+25835347+25784086+25685130
1582.54+25525696+25307801+25052166+24799873+24582831+24395807+24202338+23983128
1590.25+23765687+23595560+23488470+23420846+23362866+23313499+23293420+23326432
1597.97+23421628+23574592+23757207+23919406+24011216+24015892+23955796+23857871
1605.68+23727351+23565525+23404793+23311694+23344947+23518700+23804744+24158660
1613.40+24529233+24850671+25063703+25190010+25381959+25770140+26306477+26864217
1621.11+27359586+27767056+28111959+28453094+28841764+29287997+29770469+30271224
1628.83+30798877+31381949+32038753+32762922+33530806+34328076+35159610+36012896
1636.54+36796050+37397762+37806814+38065036+38200898+38235679+38199289+38118012
1644.26+37975928+37685476+37157761+36544841+36240576+36391451+36810449+37266531
1651.97+37626500+37939271+38459386+39250514+40118740+40948818+41724501+42433862
1659.69+43020486+43373722+43355839+42910872+42170854+41356532+40550610+39621096
1667.40+38241390+35981399+32684063+28988190+25889207+23657815+21866115+20063966
1675.12+18167415+16439921+15146194+14285980+13685051+13182531+12672904+12039029
1682.83+11072890+9624551+8035678+6915656+6351396+6032994+5713930+5343361
1690.55+5009413+4802696+4713028+4628515+4388030+3858369+3046069+2121502+1252035
1699.23+490827-98072-404586-422149-280212-133684-80170-119654-165883-131351+0
1709.84+182402+383426+580117+760737+906657+976676+908817+692140+468130+423052
1719.48+570500+804011+1023626+1169292+1224939+1229716+1261022+1387693+1629351
1728.16+1961926+2336597+2699175+3005280+3229125+3390097+3576197+3876586+4266417
1736.84+4652194+4961814+5167585+5277910+5326215+5341228+5322824+5254675+5123160
1745.52+4921789+4634666+4230360+3676976+2996698+2301980+1740854+1380760+1179558
1754.20+1049776+911768+728903+527390+368787+275177+199268+75722-92526-220703
1763.84-234632-140568+0+33963+40359+19186-39336-174060-419518-731734-982312
1774.45-1078224-1032448-913039-786772-697442-650906-613765-537514-394226
1783.13-189344+69273+393830+810024+1326282+1929847+2595859+3300083+4011902
1791.81+4682442+5256693+5713174+6058944+6296007+6404576+6352307+6107374+5649750
1800.49+5002115+4245813+3496182+2837739+2296945+1864316+1530750+1291358+1138497
1809.17+1041398+962477+877080+792452+729290+698251+695660+713250+744551+789056
1818.81+856032+959952+1105778+1274075+1418896+1491080+1477050+1410581+1333828
1827.49+1253662+1145057+1006769+890199+855627+905843+988809+1050065+1058527
1836.17+1015577+956393+934016+984992+1104627+1244320+1332615+1306042+1156368
1844.85+962046+834233+824433+915887+1068495+1246618+1417896+1551363+1623409
1853.53+1624507+1565838+1474939+1386968+1327935+1308233+1326095+1379355+1467246
1862.21+1588770+1733640+1880551+1999293+2051283+2001120+1849321+1668869+1562527
1870.89+1573917+1662572+1761751+1823762+1831095+1793514+1735516+1687415+1672425
1879.57+1698664+1758009+1834477+1916781+2005302+2102072+2200744+2281150+2307385
1888.25+2243800+2075704+1835335+1601219+1457926+1449042+1568357+1761600+1949273
1896.92+2062771+2079748+2027110+1962423+1940735+1989040+2095045+2217028+2315553
1905.60+2365005+2360934+2310451+2238169+2182242+2172603+2211401+2275555+2345414
1914.28+2421367+2513035+2614854+2699931+2741645+2743289+2730094+2722099+2715881
1922.96+2698762+2664781+2617107+2563864+2516706+2490342+2497831+2540430+2609396
1931.64+2698388+2808816+2936482+3049065+3099907+3058953+2947273+2827233+2775906
1940.32+2849054+3052896+3327486+3554309+3625435+3522226+3315460+3115054+3004413
1949.00+3016084+3125862+3268595+3354289+3297643+3053931+2645030+2150346+1666176
1957.68+1263306+974072+811224+775852+848574+975854+1080099+1090037+969730
1966.36+739067+467068+241423+112840+84975+129844+207739+272226+272061+183220
1976.00+53025+0+105903+432185+872902+1268906+1502333+1548567+1451517+1277648
1985.65+1088352+934762+870511+945709+1187322+1587428+2078264+2532612+2797963
1994.33+2768866+2437731+1888897+1263266+709308+334739+167167+165434+257426
2003.01+392946+556931+749271+951753+1118565+1204779+1203797+1158145+1120596
2011.69+1108481+1084219+987072+782257+494596+208117+22728+0+130906+367320
2021.33+648541+927780+1175034+1369045+1486112+1504471+1408154+1206055+947535
2030.01+712966+585312+608089+760288+972352+1178358+1350596+1500827+1643724
2038.69+1766635+1837397+1840819+1803096+1783479+1828797+1950708+2121489+2304696
2047.37+2478036+2637088+2790701+2949899+3121396+3300385+3471907+3615325+3709970
2056.05+3745191+3719730+3643964+3539701+3434549+3361080+3335619+3359818+3415052
2064.73+3469023+3490178+3466490+3422660+3412656+3484107+3644372+3847223+4023861
2073.41+4127649+4153372+4123089+4056051+3958863+3838237+3715845+3624498+3586748
2082.08+3603596+3654154+3709775+3748929+3765777+3765150+3752604+3733858+3721823
2090.76+3744124+3833579+3999315+4206255+4385586+4474054+4460366+4382426+4300300
2099.44+4256453+4263044+4315006+4403977+4518559+4639857+4738227+4788550+4780568
2108.12+4731129+4669403+4621489+4592716+4575357+4559513+4549629+4556602+4576379
2116.80+4585126+4551287+4464845+4341783+4213783+4098974+3998613+3905488+3821224
2125.48+3753951+3704917+3663492+3618138+3569615+3534781+3527430+3549607+3593694
2134.16+3656790+3743071+3846085+3933513+3954677+3874342+3697979+3467912+3239267
2142.84+3046994+2904261+2809531+2751662+2715446+2689611+2670496+2657576+2622253
2151.52+2496387+2203535+1723885+1137933+611343+317113+347725+679162+1191598
2160.20+1740107+2212290+2549345+2738658+2800083+2775008+2715108+2654074+2596836
2168.88+2529732+2446793+2379946+2381973+2484663+2665487+2858232+3003120+3083677
2177.56+3130413+3179433+3255306+3370964+3535141+3744564+3963383+4127857+4181340
2186.24+4119373+3995067+3874440+3800576+3769661+3763710+3789812+3890924+4113560
2194.92+4452059+4825597+5108938+5204148+5102476+4888479+4686171+4593645+4629133
2203.60+4740680+4840570+4854898+4751715+4552211+4320024+4137795+4079504+4186082
2212.28+4448922+4817135+5207855+5534736+5728125+5762497+5663581+5500884+5354054
2220.95+5267835+5232974+5209263+5163878+5104543+5061571+5059415+5098721+5171998
2229.63+5279390+5431033+5627080+5847107+6059553+6240938+6380862+6479432+6542354
2238.31+6581686+6615560+6654390+6685215+6677229+6601232+6457495+6283954+6140750
2246.99+6074286+6090650+6155590+6219019+6253773+6269635+6298300+6365284+6470067
2255.67+6593254+6718863+6850307+7014128+7234427+7510097+7798998+8031065+8153581
2264.35+8168691+8137968+8137079+8201832+8308873+8405247+8458330+8477880+8494520
2273.03+8528043+8567411+8582397+8544807+8448935+8309766+8159185+8024985+7927869
2281.71+7880137+7893341+7975987+8125671+8326664+8557011+8810873+9100849+9439642
2290.39+9821824+10219196+10603169+10969676+11340818+11742044+12173749+12606822
2298.10+13004346+13345436+13644185+13941326+14285114+14716840+15256301+15903083
2305.82+16643252+17452299+18302739+19164260+20008252+20813241+21568330+22278438
2313.53+22968969+23686970+24493781+25442490+26557521+27815663+29150758+30478755
2321.25+31725933+32852941+33854341+34752300+35588506+36419517+37294645+38228363
2328.96+39171903+40019566+40666628+41084919+41345239+41557600+41790881+42044841
2336.68+42294823+42548587+42849501+43223163+43610838+43842675+43660032+42789436
2344.39+41107265+38822178+36453631+34559521+33507145+33461129+34459595+36453720
2352.11+39279357+42624758+46096728+49375055+52311364+54866766+56989558+58582399
2359.82+59530947+59762094+59279103+58184706+56649476+54831879+52820893+50617989
2367.54+48186102+45505366+42618305+39628140+36662886+33821285+31139407+28603075
2375.25+26189961+23899269+21752568+19771260+17954730+16283185+14732191+13297167
2382.97+11996044+10863284+9930384+9210405+8692464+8345036+8127293+7998177
2390.68+7923665+7877960+7849658+7834294+7833663+7851436+7885839+7932300+7984862
2399.36+8037038+8078806+8098992+8088961+8057224+8028532+8033741+8086934+8173905
2408.04+8258844+8309633+8318522+8305824+8299602+8316495+8351280+8383155+8395470
2416.72+8384679+8363729+8353827+8372240+8427851+8513439+8607662+8681571+8711539
2425.40+8692495+8642715+8594841+8579477+8610591+8678909+8758919+8823050+8855822
2434.08+8857089+8835374+8805526+8780638+8772257+8790798+8844014+8932660+9050909
2442.76+9181100+9300509+9383968+9413443+9386635+9319566+9243346+9192033+9194446
2451.44+9263550+9391212+9549891+9699806+9799673+9825592+9776674+9677193+9565006
2460.12+9482054+9457405+9497680+9587241+9693077+9785572+9851645+9898403+9943517
2468.80+10001586+10076432+10160687+10242529+10310646+10354751+10371400+10361356
2476.51+10336956+10320308+10333272+10388430+10476765+10574379+10655350+10706703
2484.23+10734160+10752208+10773950+10807251+10860009+10944419+11069393+11235311
2491.94+11427184+11623399+11808184+11977089+12138372+12303997+12484644+12685033
2499.66+12900447+13117164+13315828+13480658+13610231+13714872+13815184+13925433
2507.37+14052873+14195601+14346489+14493697+14621555+14714521+14764959+14777816
2515.09+14770816+14766101+14777563+14804944+14835641+14847991+14822268+14749413
2522.80+14630461+14479169+14318975+14178149+14081765+14035674+14018105+13989457
2530.52+13911540+13773670+13598382+13423113+13278016+13176078+13115244+13087503
2538.23+13083939+13091832+13099080+13098956+13099334+13112826+13149603+13204072
2545.95+13259941+13298380+13310339+13298629+13273687+13244284+13212343+13178104
2553.66+13145021+13121982+13116515+13129364+13157998+13201014+13261083+13339227
2561.38+13423229+13487124+13506088+13475285+13418518+13373715+13375622+13432264
2569.09+13529758+13635666+13722729+13773781+13784598+13762194+13720694+13677922
2576.81+13653478+13662140+13707072+13775305+13843027+13888728+13904260+13903363
2584.52+13911260+13946268+14007888+14075108+14122853+14136092+14115342+14072686
2592.24+14022399+13979236+13953139+13950463+13970325+14005461+14048624+14095729
2599.95+14144492+14188544+14220245+14236293+14248893+14280980+14352796+14460396
2607.67+14576788+14670264+14721840+14735849+14728204+14714072+14700823+14693819
2615.38+14697637+14718654+14756603+14803220+14847285+14884217+14916060+14947517
2623.10+14978471+15005217+15024070+15038331+15054508+15077054+15102529+15123417
2630.81+15132079+15129915+15120742+15110551+15101253+15090294+15076157+15061250
2638.53+15053477+15066344+15111818+15190797+15293340+15400607+15494751+15563806
2646.24+15601645+15606360+15578201+15524945+15463405+15414105+15398430+15423660
2653.96+15486720+15573481+15667762+15756950+15834423+15900812+15960321+16014861
2661.67+16060482+16090809+16106613+16115786+16132101+16166633+16220800+16288598
2669.39+16360866+16430966+16495844+16556131+16612729+16670086+16728595+16789660
2677.10+16855058+16931166+17023981+17132483+17244302+17345547+17427153+17494617
2684.82+17558246+17619844+17669451+17694832+17691512+17673149+17662433+17677868
2692.53+17722120+17780016+17830272+17860115+17873124+17887914+17925415+17994164
2700.25+18088303+18193539+18300060+18404416+18505079+18598089+18677579+18740866
2707.96+18798033+18869230+18976298+19133141+19347173+19622506+19964263+20377337
2715.68+20864950+21431899+22080538+22818876+23654678+24584485+25582298+26586360
2723.39+27506461+28239550+28697863+28835951+28659264+28215569+27581787+26838800
2731.11+26063428+25316503+24640492+24060637+23585694+23214947+22943996+22762567
2738.82+22654922+22602502+22585627+22588178+22601857+22625119+22661171+22714987
2746.54+22790033+22892696+23026816+23195214+23390612+23594089+23782229+23941356
2754.25+24076565+24208845+24360195+24537024+24729728+24923353+25110590+25292984
2761.97+25482306+25687650+25907989+26132585+26345929+26537646+26709920+26877336
2769.68+27053992+27245399+27442970+27635816+27822916+28015674+28236008+28498416
2777.40+28804446+29138096+29477057+29806708+30124994+30443587+30774167+31118785
2785.11+31473342+31835289+32216688+32637460+33116136+33652380+34229115+34818236
2792.83+35400962+35972653+36544117+37136082+37765046+38437996+39152139+39898882
2800.54+40669236+41457426+42256100+43054445+43845346+44627629+45414094+46224510
2808.26+47079355+47993562+48974981+50022535+51124411+52261366+53419702+54605420
2815.97+55850936+57209501+58734020+60463407+62414329+64586225+66975882+69590851
2823.69+72458171+75619405+79113334+82964548+87178976+91757489+96703170
2830.44+102021683+107704521+113724520+120032535+126570942+133283930+140121918
2837.19+147043511+154009823+160983602+167922679+174780230+181508417+188066886
2843.94+194424633+200558033+206429272+211961075+217010620+221367300+224784885
2850.69+227043116+228008024+227660481+226077284+223389842+219749349+215317667
2857.44+210279304+204844298+199232195+193644999+188246453+183162759+178496525
2864.19+174336406+170748072+167758969+165346842+163444225+161965931+160839856
2870.94+160028418+159527387+159346558+159481859+159898094+160534249+161324621
2877.69+162219504+163194794+164246525+165387925+166641640+168037750+169603597
2884.44+171357543+173309545+175466641+177832104+180399017+183136377+185993004
2891.20+188919229+191894643+194941877+198116999+201479653+205060681+208855959
2897.95+212839391+216995581+221338537+225907050+230738487+235841310+241185866
2904.70+246706149+252307906+257877112+263281435+268385804+273072020+277253026
2911.45+280877271+283923918+286397910+288328365+289763390+290770625+291434815
2918.20+291845058+292084000+292203889+292209489+292055699+291654860+290898638
2924.95+289678913+287910211+285549655+282603325+279117884+275161261+270805380
2931.70+266121760+261189349+256096571+250944025+245836563+240873344+236138615
2938.45+231691128+227563169+223775553+220355657+217355070+214844599+212896615
2945.20+211568449+210892847+210878110+211514105+212771642+214610563+216981377
2951.95+219828617+223087968+226676303+230477732+234327195+237987527+241142472
2958.70+243409716+244386676+243718487+241166382+236650276+230256780+222213759
2965.45+212852439+202567490+191782327+180902732+170273635+160144467+150665516
2972.20+141911365+133923783+126731150+120346640+114749479+109870613+105603831
2978.95+101833068+98458130+95402328+92598907+89980201+87473197+85007436
2985.70+82532101+80028191+77506423+75000050+72548168+70185897+67937377+65818412
2993.42+63846487+62049315+60459385+59104713+57991735+57092496+56354758+55716505
3001.13+55124424+54547173+53969825+53385504+52786432+52157845+51483558+50751180
3008.85+49955075+49102692+48208599+47293169+46378909+45495042+44675756+43962061
3016.56+43389335+42977879+42733123+42649868+42719039+42923361+43237967+43625322
3024.28+44041934+44442347+44789103+45056942+45238629+45336839+45358549+45304774
3031.99+45173467+44962186+44668618+44289201+43818413+43250380+42589190+41848470
3039.71+41044436+40186694+39275962+38313334+37308667+36283784+35263767+34270224
3047.42+33316347+32415050+31583471+30845013+30215995+29700943+29289890+28971106
3055.14+28735950+28578654+28483013+28417113+28345457+28248803+28134349+28021553
3062.85+27920308+27822009+27712187+27595062+27503061+27475764+27534575+27665779
3070.57+27822498+27949747+28001776+27964995+27859261+27728546+27617830+27549659
3078.28+27517749+27494937+27447525+27353097+27200765+26992599+26744350+26483084
3086.00+26237844+26030411+25869341+25753732+25682294+25656562+25667691+25692143
3093.71+25698538+25668451+25613528+25566161+25554383+25578569+25619790+25657038
3101.43+25686352+25712716+25736270+25749194+25739977+25707454+25662904+25623470
3109.14+25601706+25605799+25638185+25696041+25771825+25854911+25933641+25994843
3116.86+26026589+26022491+25987146+25945281+25928757+25964093+26052690+26175606
3124.57+26303268+26413904+26498683+26559637+26603564+26637754+26664517+26680010
3132.29+26673224+26633892+26562174+26476746+26407206+26380950+26411682+26493634
3140.00+26609670+26739532+26866332+26980710+27079343+27161837+27229608+27282255
3147.72+27319023+27337333+27335662+27316699+27287997+27266989+27276331+27338724
3155.43+27462098+27633154+27819334+27985030+28106519+28184059+28236475+28287997
3163.15+28353106+28430912+28506661+28563321+28595622+28612537+28630861+28665090
3170.86+28722648+28804948+28909437+29028802+29142536+29227288+29270624+29286393
3178.58+29304343+29351790+29432192+29528242+29620972+29707280+29800019+29908397
3186.29+30023584+30125185+30192916+30227168+30248199+30288610+30370074+30491968
3194.01+30636700+30782477+30912464+31018731+31097911+31149762+31180045+31197631
3201.72+31212386+31231510+31254478+31278469+31298232+31308499+31309010+31306432
3209.44+31311183+31334533+31373425+31416037+31452751+31483168+31517953+31565445
3217.15+31626549+31693560+31763785+31839266+31922850+32010927+32093102+32158206
3224.87+32205840+32245390+32290713+32349142+32408855+32447507+32448396+32419503
3232.58+32389185+32392007+32441320+32527491+32630234+32737230+32851030+32981412
3240.30+33128118+33277908+33408193+33498261+33545668+33566218+33589866+33641384
3248.01+33724781+33819107+33888238+33900700+33843506+33729635+33597022+33498065
3255.73+33484186+33583249+33784748+34042810+34295503+34494363+34620732+34683596
3263.44+34706475+34709173+34707618+34714048+34739879+34791561+34870501+34970795
3271.16+35083813+35201867+35314894+35406975+35461506+35469857+35441938+35398846
3278.87+35363474+35343404+35335044+35334520+35347119+35383385+35445760+35518806
3286.59+35572436+35582978+35549525+35492932+35448165+35445711+35498576+35601204
3294.30+35736896+35886496+36032375+36158970+36251465+36299716+36300739+36262904
3302.02+36202551+36137962+36081991+36037988+36001954+35970946+35949587+35948551
3309.73+35976719+36031904+36101368+36170965+36232203+36282122+36318525+36337173
3317.45+36334857+36310147+36267166+36212991+36156508+36110314+36088311+36097173
3325.16+36131656+36177574+36219897+36254376+36287570+36326547+36375176+36426770
3332.88+36468964+36493927+36499705+36492501+36481168+36474728+36476266+36483337
3340.59+36494527+36509065+36529002+36550099+36559867+36539410+36482390+36403508
3348.31+36340453+36329129+36383931+36483519+36588008+36663152+36699049+36706249
3356.02+36700324+36690663+36679210+36669290+36669801+36691409+36738763+36805294
3363.74+36875305+36930636+36963706+36978763+36991110+37011958+37042197+37069480
3371.45+37081435+37077191+37073831+37096866+37161219+37260331+37367678+37453929
3379.17+37504256+37524464+37530117+37529988+37519037+37493025+37459293+37440360
3386.88+37457342+37516815+37603839+37694209+37767473+37810592+37820889+37804792
3394.60+37779037+37762798+37771042+37803992+37846475+37876856+37881873+37860879
3402.31+37828040+37809489+37829311+37901286+38014722+38137949+38235048+38285397
3410.03+38303414+38327106+38392909+38509211+38646122+38755998+38802236+38773762
3417.74+38685640+38564431+38444507+38365945+38371598+38482999+38689982+38951351
3425.46+39215977+39446991+39627789+39755625+39828817+39847759+39822618+39778406
3433.17+39742447+39733159+39746816+39774770+39811751+39861234+39925805+39991785
3440.89+40034183+40035335+39997567+39937111+39868660+39791068+39693116+39574555
3448.60+39448649+39335768+39240412+39158721+39082182+39008616+38932209+38840102
3456.32+38710240+38523468+38274117+37972652+37639815+37304583+36998492+36748296
3464.03+36560672+36415912+36273220+36097084+35867452+35591799+35290081+34984163
3471.75+34690889+34425672+34202662+34030686+33909104+33825569+33760531+33692040
3479.46+33600026+33470124+33300912+33109874+32926174+32769980+32643718+32534419
3487.18+32432832+32344217+32282184+32250341+32228119+32182276+32092128+31967453
3494.89+31848044+31780766+31792957+31883460+32027389+32190965+32341195+32455102
3502.61+32529842+32589297+32664428+32767811+32885722+32998367+33094831+33177690
3510.32+33250652+33297157+33288290+33197965+33024149+32785104+32511914+32236977
3518.04+31984408+31763194+31560747+31341889+31065943+30711000+30295424+29859035
3525.75+29432863+29018580+28608479+28211920+27858226+27571343+27345991+27152300
3533.47+26957734+26743590+26514874+26296424+26114612+25981719+25887625+25811325
3541.18+25740279+25672304+25601391+25504625+25347969+25132585+24919784+24790548
3548.90+24770460+24813317+24839160+24788744+24663229+24517896+24411584+24362719
3556.61+24349409+24342756+24325485+24300281+24282500+24275078+24253456+24165455
3564.33+23942903+23538669+23005652+22549842+22396727+22567339+22913220+23287918
3572.04+23606422+23835702+23969991+24021145+24014492+23980724+23955014+23966138
3579.76+24033664+24168215+24372234+24642029+24951018+25247630+25459182+25534304
3587.47+25515487+25541082+25711569+26012136+26375230+26743123+27077147+27351133
3595.19+27561739+27736368+27910113+28097195+28288015+28478599+28688547+28949680
3602.90+29270451+29637838+30037095+30483515+31022042+31718337+32623821+33784357
3610.62+35297872+37373523+40301076+44309645+49424009+55511081+62399223+69689843
3618.33+76196149+79869556+79263791+75062554+69221367+63311212+58075639+53688360
3626.05+49982527+46580279+43148881+39897659+37586835+36529410+36288290+36353643
3633.76+36464537+36557569+36672339+36883251+37262660+37863203+38718799+39848737
3641.48+41256011+42923916+44825302+46956017+49354843+52094247+55172098+58253090
3649.19+60528089+61508472+61699385+61654569+61399827+60694386+59307533+57237882
3656.91+54877171+52814666+51386673+50562866+50189413+50180858+50525912+51215181
3664.62+52179760+53287209+54360336+55191875+55556724+55329350+54703595+54123326
3672.34+53826297+53733389+53719754+53897637+54692630+56447501+59074274+62340309
3680.05+66124250+70400667+75164346+80396426+86046670+92069433+98524528
3686.80+105731507+114310694+124730048+136154441+146231025+153194581+156948439
3693.55+157924048+156308230+152168751+145770579+137614771+128167454+117561148
3700.31+105678486+92744156+79901226+68768480+60193555+53857478+48947266
3707.06+44770775+40869452+36868892+32398433+27387198+22533878+18834507+16532825
3714.77+15193566+14343805+13708183+13165620+12677900+12242044+11855111+11494049
3722.49+11112467+10676944+10193873+9705832+9256386+8873435+8564815+8337348
3730.20+8188468+8093658+7991369+7753817+7199877+6232551+5052638+4061744+3488276
3738.88+3289607+3308091+3397999+3460552+3440931+3326842+3172883+3083748+3115658
3747.56+3210361+3226450+2990956+2423483+1725467+1253333+1112303+1187815+1348850
3756.24+1503062+1570246+1486369+1264613+1018346+866707+825224+834966+833704
3764.92+804749+767315+736969+701308+642124+570051+530852+557158+645297+768982
3774.56+899244+1003973+1042550+978810+811740+600556+431496+343246+306834+269919
3784.21+208095+141093+115431+166127+293954+474890+675829+865778+1016795+1101663
3793.85+1098885+1011617+884262+799909+812940+890466+926007+830019+639195+513626
3803.49+544487+657537+710521+618214+416910+247111+225872+362427+597490+857374
3813.14+1071371+1173194+1124120+964126+801611+710312+638231+480303+221992+13648
3822.78+0+135546+293230+385937+415301+441118+514862+636920+768848+878142+968726
3833.39+1067789+1192918+1322602+1399164+1354156+1160772+877484+606241+401795
3842.07+262355+187033+198691+320855+548865+848996+1177251+1499236+1784572
3850.75+1983898+1983809+1629289+963912+400786+217214+303225+482178+659501
3859.43+810282+930594+1005120+991614+861489+662954+519955+508982+588806+648524
3869.07+598850+452313+328415+329326+433296+563962+684131+809118+948784+1073531
3878.71+1131120+1099019+1032257+1025452+1095690+1145813+1066020+856578+651457
3887.39+585597+674278+828486+938051+933656+836792+741454+717197+762631+843863
3897.04+936989+1033661+1123502+1168949+1109143+906648+597045+293176+107454
3905.72+74224+144430+249787+350601+439029+529732+642324+781608+924958+1026186
3915.36+1039750+950086+793896+646697+572864+580477+629578+667678+659994+610818
3925.00+564175+570020+638986+741085+824091+846761+794674+689722+582490+517128
3934.65+504129+524141+547189+553669+542563+529439+527826+544043+571895+601139
3944.29+619765+616000+579597+513728+439389+392750+400110+459201+544101+622800
3953.94+669505+673834+640471+592303+559576+559100+585308+615063+623187+599312
3963.58+547478+481858+414852+353290+298932+246600+193766+148013+125280+139217
3973.22+183002+232223+258053+251507+227125+210708+216806+244031+275044+288474
3982.87+271430+225041+166265+114311+79686+58847+40670+19195+0-27981-33070
3993.48-19568+0-982-67+3258+0
##END=
