##TITLE=Default
##JCAMP-DX=4.24
##DATA TYPE=INFRARED SPECTRUM
##DATE=19/9/2016
##SAMPLING PROCEDURE=ATR
##ORIGIN=Default
##XUNITS=1/CM
##YUNITS=ABSORBANCE
##RESOLUTION=4
##FIRSTX=599.84104
##LASTX=3998.2974
##DELTAX=0.96437467
##MAXY=0.40445831
##MINY=0.13264914
##XFACTOR=1
##YFACTOR=3.7668116e-010
##NPOINTS=3525
##FIRSTY=0.27755812
##XYDATA=(X++(Y..Y))
599.84+736851609+735204527+732254132+728183423+723299617+718000282+712602129
606.59+707176363+701565303+695597736+689343524+683239637+677995289+674298493
613.34+672481465+672349813+673335150+674895202+676888664+679634934+683657381
620.09+689343762+696761881+705627783+715391677+725442849+735321227+744809631
626.84+753815256+762221561+769888982+776762056+782921959+788507543+793613118
633.59+798279428+802595957+806777985+811132253+815954426+821450923+827695325
640.34+834586200+841846795+849114669+856088698+862621010+868693013+874352257
647.10+879676355+884776391+889785204+894803986+899858371+904898198+909845536
653.85+914648879+919331092+924001833+928807629+933820397+938964502+944056785
660.60+948942806+953594717+958082458+962486808+966869005+971314971+975968227
667.35+980919995+985930549+990473276+994358928+997870350+1001325520+1004862023
674.10+1008466092+1012056396+1015561963+1018954313+1022227590+1025370480
679.88+1028371115+1031232265+1033976321+1036633109+1039226602+1041764555
685.67+1044233833+1046612758+1048894051+1051110942+1053354338+1055774008
691.46+1058558651+1061861044+1065648114+1069518258+1072612886+1073741823
697.24+1071736415+1065873363+1056143490+1043239713+1028306317+1012608245
703.03+997274511+983177474+970928399+960916787+953332519+948142842+945030176
709.78+943361811+942284933+940993408+939054618+936597049+934203487+932564159
716.53+932126952+932959750+934843633+937460070+940533653+943863103+947268824
723.28+950527622+953365433+955534457+956938251+957718514+958226453+958880285
730.03+959994427+961683442+963870347+966358139+968904319+971271218+973258429
736.78+974725676+975598982+975851448+975471444+974444727+972763387+970443326
743.53+967530195+964090770+960209075+955992235+951577758+947118183+942733850
750.28+938448335+934146681+929584569+924464437+918548534+911759958+904229491
757.03+896271232+888303163+880751571+873965290+868160706+863404439+859633588
763.78+856705899+854463611+852783537+851597872+850877264+850600034+850735642
770.54+851250069+852125353+853363552+854969651+856926401+859183168+861668823
777.29+864319203+867095459+869985725+872993165+876123712+879375232+882725253
784.04+886117602+889461769+892657985+895639711+898407423+901023781+903577004
790.79+906131808+908690094+911168550+913399999+915166391+916265263+916576356
797.54+916090808+914879904+913038745+910646133+907766152+904471276+900864121
804.29+897078554+893270280+889598485+886203208+883183426+880591436+878450024
811.04+876783953+875631123+875027134+874972147+875418611+876286142+877495621
817.79+878988502+880726253+882672956+884782167+886999058+889268483+891533004
824.54+893722361+895741141+897478417+898834265+899748397+900208785+900230543
831.29+899824746+898975808+897638157+895753008+893273682+890184751+886508525
838.04+882298806+877633682+872613635+867363670+862029523+856761044+851693526
844.79+846932432+842546121+838569167+835006872+831841591+829033055+826510609
851.54+824166575+821879269+819565617+817237723+815017351+813089557+811628324
858.29+810743783+810478183+810831446+811791070+813346771+815491348+818221399
865.04+821549346+825532946+830304325+836063653+843004215+851184084+860393992
871.79+870067296+879256792+886710672+891105053+891464092+887647985+880617070
878.55+872237744+864652290+859510480+857392724+857612831+858452037+857805800
885.30+854083527+846991375+837719675+828357386+820873915+816307610+814589875
892.05+814950496+816520596+818717628+821301232+824236674+827562723+831334602
898.80+835604689+840405816+845735216+851559341+857819645+864431155+871251695
905.55+878062898+884565858+890395996+895149178+898425699+899893341+899369262
912.30+896890728+892741375+887408178+881467037+875443692+869705963+864424826
919.05+859611118+855190311+851080360+847244474+843711690+840562787+837896188
925.80+835793623+834296153+833400615+833058508+833179163+833636387+834281912
932.55+834960113+835520111+835816646+835718223+835118982+833956183+832221675
939.30+829967994+827310336+824423789+821518174+818801968+816447174+814573973
946.05+813265200+812582014+812568960+813244946+814595730+816579222+819139882
952.80+822218686+825755743+829686175+833936561+838425568+843068143+847772430
959.55+852434072+856927351+861105344+864809182+867887749+870218491+871730043
966.30+872423514+872389256+871803307+870897957+869914993+869064948+868510409
973.05+868371952+868744677+869704697+871310796+873593751+876548814+880132630
979.80+884269798+888869807+893840010+899094722+904555062+910154334+915838104
986.56+921561750+927281044+932947328+938513450+943948393+949244800+954417229
993.31+959495745+964536443+969632286+974912711+980514910+986539442+993012099
1000.06+999855821+1006871387+1013717402+1019905946+1024829232+1027835485
1005.84+1028346905+1025993931+1020734076+1012900349+1003145950+992302409
1011.63+981214394+970611136+961047806+952901167+946399078+941670027+938795743
1018.38+937850360+938905559+941998921+947081472+953968550+962313618+971598372
1025.13+981136225+990096041+997556884+1002614355+1004526482+1002872201
1030.92+997653883+989300745+978551751+966263513+953225710+940048184+927138789
1037.67+914751021+903041928+892111199+882012477+872750114+864283837+856541729
1044.42+849434465+842870189+836761475+831040203+825664520+820615989+815893426
1051.17+811502526+807460221+803799582+800575200+797853456+795695745+794137355
1057.92+793177018+792775652+792872651+793400844+794296540+795495418+796926745
1064.67+798515279+800190290+801896552+803595061+805262160+806887801+808478155
1071.42+810050708+811617722+813173423+814689643+816129989+817462972+818668179
1078.17+819738727+820683319+821526640+822299941+823017068+823662672+824205264
1084.92+824627043+824938927+825165442+825309042+825331511+825162515+824724833
1091.67+823951690+822784935+821166889+819039006+816346378+813049761+809131988
1098.42+804597884+799467071+793775706+787582968+780983960+774110885+767125543
1105.17+760205947+753551476+747381130+741914618+737307251+733556733+730433781
1111.92+727492484+724180677+720021356+714779303+708538066+701650276+694596179
1118.67+687829598+681677132+676308094+671750493+667921569+664666648+661801304
1125.43+659160142+656634650+654182778+651814297+649563623+647470710+645571518
1132.18+643893738+642450108+641233508+640221943+639391717+638728390+638227097
1138.93+637882617+637676751+637579278+637559775+637604121+637717972+637914659
1145.68+638196953+638550493+638945727+639354135+639757084+640151053+640541462
1152.43+640938595+641345698+641750902+642124062+642425779+642628915+642735329
1159.18+642778409+642806140+642859189+642957493+643099748+643273452+643461001
1165.93+643641747+643791003+643881949+643892630+643816004+643665403+643470021
1172.68+643268151+643095396+642980042+642935182+642958205+643033723+643141166
1179.43+643266133+643402770+643551908+643717028+643902480+644114517+644359783
1186.18+644641523+644958036+645305443+645682085+646088951+646526870+646995803
1192.93+647495751+648025486+648581371+649152050+649722492+650283914+650838493
1199.68+651394180+651953387+652505988+653033152+653516999+653945622+654317833
1206.43+654643325+654939939+655228285+655522249+655824916+656130589+656430130
1213.18+656718713+656999306+657282193+657581932+657912725+658283315+658693780
1219.93+659133479+659583187+660023005+660444071+660857859+661293761+661782790
1226.68+662342037+662970354+663660225+664408722+665216993+666083337+666996124
1233.44+667930035+668836491+669635743+670217895+670463477+670282059+669641756
1240.19+668582522+667204125+665641462+664037025+662512695+661151467+659995471
1246.94+659053728+658314448+657749940+657324363+657000888+656751389+656557273
1253.69+656406671+656284394+656169673+656032363+655831957+655529647+655107432
1260.44+654583552+654003932+653413908+652839827+652292646+651788505+651356678
1267.19+651027388+650815272+650710401+650682116+650691294+650705812+650714001
1273.94+650726937+650764874+650840155+650957882+651123714+651352801+651658513
1280.69+652037094+652463383+652900471+653309393+653653874+653899456+654026797
1287.44+654050335+654019676+654004644+654071301+654272103+654648191+655232756
1294.19+656051906+657125816+658474543+660112052+662029362+664177223+666463500
1300.94+668760380+670919356+672795011+674274283+675303373+675885129+676054837
1307.69+675856646+675331460+674517729+673448289+672157476+670702177+669175908
1314.44+667675590+666242207+664834536+663385685+661896721+660477459+659282103
1321.19+658397047+657797727+657399130+657116203+656892180+656698776+656527762
1327.94+656385428+656278104+656205711+656167972+656182886+656289023+656522065
1334.69+656888659+657357909+657875302+658387553+658879351+659413478+660120597
1341.45+661111235+662402483+663935358+665636715+667459993+669395224+671450635
1348.20+673632793+675940749+678371971+680917677+683550413+686216300+688845555
1354.95+691368316+693726671+695881929+697819058+699542331+701065197+702414162
1361.70+703676571+705058212+706837658+709240873+712439937+716687474+722350278
1368.45+729714597+738703212+748822346+759342293+769282858+777057958+780478869
1375.20+777889885+769463247+756899915+742255380+727433858+714177925+703844856
1381.95+697000501+693336618+692051106+692332925+693620890+695623371+698190597
1388.70+701182608+704451929+707917305+711600414+715600628+720022147+724860777
1395.45+729942062+735044788+740095533+745149285+750202167+755133127+759848254
1402.20+764418910+769068843+774048778+779480161+785306501+791460392+798066284
1408.95+805429258+813857004+823473026+834122726+845433143+856986136+868491895
1415.70+879866555+891123567+901961806+911279632+917630289+920580210+920730376
1422.45+918677022+914813603+909762620+904397855+899272026+894220489+888644478
1429.20+882192392+875309745+869073888+864300610+860955257+858342300+855538036
1435.95+851892825+847708107+844139244+841892288+840678141+839875725+839090714
1442.70+838232282+837309606+836174260+834436588+831635884+827571900+822506360
1449.46+816957882+811312959+805727533+800260863+794881065+789184795+781845556
1456.21+770372077+753705440+736884681+725728861+719759475+716113472+712776822
1462.96+708583163+702989826+696426657+690351094+686074836+683753984+682807414
1469.71+682675366+683118507+684257809+686523832+690323482+695552085+701665308
1476.46+708058610+714166611+719442686+723354841+725426076+725384460+723369478
1483.21+719918344+715641770+710903541+705739419+699934836+693226169+685841596
1489.96+679026674+674162331+671382910+669856878+668632604+666908303+664079670
1496.71+660010820+655389133+651320283+648358257+646388413+645138662+644400648
1503.46+643938994+643259289+641172152+635530987+625755701+616473399+611036043
1510.21+608027970+605749407+603565666+601347549+599006561+596349575+593238807
1516.96+589899862+586884708+584458431+582149763+579102210+575068094+570941172
1523.71+567627189+564972062+562314166+559411163+556669837+554611380+553302845
1530.46+552364622+551255504+549557747+547357471+545383868+544335394+544256276
1537.21+544737314+545196397+544855042+542952606+539975706+537666682+536532048
1543.96+536060346+535978933+536209444+536601316+536934008+537043152+536923486
1550.71+536724899+536617971+536669635+536867430+537204671+537647496+537934457
1557.47+537297438+534832313+531627711+530085382+530196068+530880005+531540839
1564.22+532009733+532314378+532518938+532597146+532401052+531829423+531112019
1570.97+530734942+530935546+531530910+532113180+532211643+531534866+530422029
1577.72+529662732+529560037+529842133+530175497+530378910+530407353+530300346
1584.47+530134435+529980115+529868677+529790231+529720607+529658500+529631402
1591.22+529664236+529743908+529829197+529895023+529962392+530082217+530288557
1597.97+530568240+530858129+531063875+531093070+530907894+530568675+530203545
1604.72+529918086+529727570+529573408+529397093+529206656+529093675+529182841
1611.47+529552837+530188433+530973443+531697889+532098029+532050716+531854068
1618.22+532016814+532674168+533578013+534409031+534929589+535077580+535027973
1624.97+535031889+535160021+535308367+535397138+535504303+535811361+536432043
1631.72+537322399+538299509+539053228+539150741+538318813+537067678+536357712
1638.47+536427098+536934325+537584953+538277158+539015726+539800736+540526685
1645.22+540929911+540734133+540161673+540037300+540791375+542100622+543331780
1651.97+543612017+542065652+539419941+537775232+537513747+537847427+538224979
1658.72+538398050+538192106+537379681+535754712+533443433+531068860+529271374
1665.48+528160278+527357427+526251671+524199465+520990076+517423983+514685624
1672.23+513025488+511859484+510602691+509137265+507802462+506969664+506688083
1678.98+506768586+506999215+507190839+507060571+506120331+504023897+501491483
1685.73+499847447+499323962+499302679+499272693+499115327+499000804+499122962
1692.48+499488448+499906746+500100783+499853935+499180797+498315482+497391026
1699.23+496336143+495261323+494572204+494474453+494753622+495039278+495074011
1705.98+494867829+494673198+494734515+495091417+495642910+496284677+496962759
1712.73+497648120+498272600+498650191+498450893+497449019+496076992+495213259
1719.48+495142527+495530404+495981575+496258370+496305920+496243892+496273482
1726.23+496525236+496992903+497595546+498265717+498964568+499608312+499976172
1732.98+499796060+499148596+498669180+498821364+499438644+500113403+500537001
1739.73+500597369+500393679+500124835+499912680+499751437+499580858+499332783
1746.48+498909818+498148741+496862635+495031445+493026868+491445058+490599918
1753.23+490356511+490371108+490318732+490028171+489556903+489115780+488831825
1759.98+488610887+488274240+487818282+487479695+487481238+487806533+488275308
1766.73+488718290+489064235+489308116+489411089+489238888+488673272+487868957
1773.49+487268766+487179205+487539983+488112403+488670543+489056125+489202454
1780.24+489154113+489042793+488983138+488999832+489061268+489175672+489420108
1786.99+489871952+490515380+491213361+491733048+491826447+491415508+490780624
1793.74+490373086+490382027+490677137+491035741+491277961+491286070+491009750
1800.49+490503394+489945453+489551246+489429760+489543058+489778632+490034461
1807.24+490245152+490364067+490346503+490175251+489917366+489712212+489668420
1813.99+489782430+489961316+490105627+490174935+490207492+490290250+490493385
1820.74+490813537+491159363+491393394+491418989+491275864+491126331+491086139
1827.49+491071185+490854243+490307062+489617864+489170292+489157396+489457610
1834.24+489817004+490031929+490032680+489906131+489839474+489990234+490372256
1840.99+490830587+491091796+490884546+490154325+489227970+488579201+488392838
1847.74+488528367+488777748+489014944+489195096+489303923+489335214+489299413
1854.49+489231530+489174288+489152135+489162855+489191615+489226071+489266105
1861.24+489330586+489461526+489707584+490078925+490496352+490761398+490596793
1867.99+489832235+488671888+487647940+487149852+487163816+487449156+487770573
1874.74+487989098+488065289+488021338+487902542+487754829+487618548+487515140
1881.49+487439187+487371739+487317622+487319442+487409003+487537135+487557073
1888.25+487316475+486808694+486241852+485885583+485832376+485947572+486013675
1895.00+485895631+485618836+485313717+485088784+484964529+484902579+484862704
1901.75+484827259+484796165+484774804+484757358+484713289+484584604+484306741
1908.50+483863441+483329908+482855239+482579354+482554629+482718799+482919997
1915.25+482964936+482701789+482134630+481473559+480979189+480716516+480503412
1922.00+480113438+479514672+478917884+478565610+478487758+478499942+478391075
1928.75+478076541+477610693+477093023+476578399+476065278+475539063+475008655
1935.50+474514760+474122571+473889647+473801945+473722352+473409083+472642072
1942.25+471399482+469931603+468590194+467565337+466817433+466205454+465617250
1949.00+465007921+464373156+463712401+463004926+462202747+461243518+460089342
1955.75+458766922+457359924+455955418+454586397+453237155+451903856+450636779
1962.50+449504954+448515067+447567469+446503804+445224859+443781387+442345195
1969.25+441055727+439914645+438818819+437681733+436515966+435440632+434632361
1976.00+434287049+434583742+435608481+437261339+439252466+441230934+442952704
1982.75+444346529+445464112+446380933+447142090+447776894+448314305+448767256
1989.50+449101689+449257354+449218665+449072573+448965566+448981271+449072296
1996.26+449100581+448929646+448491846+447802212+446915179+445874577+444693739
2003.01+443378953+441974170+440583827+439354054+438408948+437785219+437412454
2009.76+437171856+436984900+436856530+436831015+436896485+436930308+436740108
2016.51+436194826+435351703+434441211+433713205+433286640+433122944+433108822
2023.26+433140548+433152653+433111314+433008777+432870715+432756192+432731270
2030.01+432845793+433127810+433598998+434282342+435193625+436325252+437641857
2036.76+439075755+440528919+441887061+443059672+444026614+444852924+445643038
2043.51+446472829+447357054+448295158+449328679+450550738+452040454+453776306
2050.26+455613549+457347661+458812454+459941154+460766040+461373233+461850513
2057.01+462259989+462638095+463011295+463398776+463800578+464185329+464504334
2063.76+464725192+464865904+464999693+465215527+465569067+466054101+466606899
2070.51+467139127+467577679+467898029+468134948+468357230+468631256+468985745
2077.26+469400443+469820837+470189884+470474868+470682315+470847910+471011684
2084.01+471196465+471406128+471631615+471862679+472081639+472254908+472335410
2090.76+472281175+472077920+471752666+471370248+471014058+470766774+470675393
2097.51+470730815+470867452+470998155+471065762+471071854+471068135+471117584
2104.27+471250859+471452254+471672914+471864736+472005685+472100469+472166612
2111.02+472215546+472250358+472268239+472263373+472223419+472126855+471952281
2117.77+471695582+471379426+471043015+470723852+470439937+470184069+469925708
2124.52+469621420+469228203+468717218+468079328+467321534+466454557+465489434
2131.27+464437083+463309017+462116350+460878586+459628558+458412789+457264191
2138.02+456175050+455091290+453949298+452724430+451450153+450188851+448987758
2144.77+447853323+446761254+445679551+444577949+443417404+442136521+440653411
2151.52+438885595+436771399+434283964+431441129+428344998+425244634+422571508
2158.27+420845229+420437137+421333665+423140645+425321577+427482412+429469386
2165.02+431296580+433015660+434637741+436122393+437406639+438428529+439147357
2171.77+439566763+439747785+439796759+439830384+439931735+440126326+440389869
2178.52+440682724+440986617+441320100+441718223+442194198+442725674+443280609
2185.27+443855838+444485776+445199383+445979211+446757101+447464101+448073152
2192.02+448605499+449095003+449552741+449964986+450314570+450607228+450872076
2198.77+451144203+451450470+451806303+452224839+452715292+453263660+453814402
2205.52+454277915+454577655+454706498+454742062+454800886+454961615+455221558
2212.28+455514809+455775504+455984296+456173112+456388392+456658779+456987040
2219.03+457366174+457791830+458254671+458725464+459155827+459503828+459761754
2225.78+459962041+460147336+460332947+460501153+460630155+460733483+460864344
2232.53+461081643+461406146+461807235+462225216+462611630+462949899+463250548
2239.28+463530983+463796859+464042798+464258830+464444283+464605012+464751420
2246.03+464892132+465034900+465187242+465356793+465545292+465742177+465927986
2252.78+466086618+466219062+466348381+466505628+466711256+466963762+467244750
2259.53+467532661+467812344+468077983+468327403+468559417+468776003+468979653
2266.28+469166886+469329513+469458990+469565839+469678306+469828274+470025595
2273.03+470247838+470456156+470622660+470749605+470860727+470982529+471124902
2279.78+471278510+471426066+471556927+471673508+471790959+471932106+472110398
2286.53+472322791+472541948+472731872+472868548+472957200+473027022+473107920
2293.28+473208005+473305360+473369524+473380601+473341833+473275136+473206343
2300.03+473159307+473152147+473195267+473287677+473418222+473569693+473726585
2306.78+473878650+474018610+474135111+474213913+474240892+474214427+474149630
2313.53+474074982+474019836+474002114+474021498+474061611+474097609+474104651
2320.29+474067940+473986686+473875525+473757995+473655932+473588365+473573847
2327.04+473624918+473727851+473831614+473863538+473782244+473625432+473490219
2333.79+473463991+473564828+473743081+473926872+474059870+474114501+474082854
2340.54+473963662+473731490+473321658+472660507+471783799+470918444+470374941
2347.29+470340644+470797670+471596645+472549109+473481002+474264826+474845118
2354.04+475250401+475551208+475795604+475979079+476064210+476007008+475778158
2360.79+475376080+474841083+474258101+473718712+473271497+472906169+472565249
2367.54+472196914+471788902+471367241+470961247+470564983+470143363+469664698
2374.29+469136030+468607086+468139774+467776661+467524591+467363071+467260929
2381.04+467193442+467148384+467122552+467115233+467121800+467135329+467150995
2387.79+467171170+467202303+467246728+467297126+467337002+467351322+467335340
2394.54+467293289+467234662+467169825+467110803+467070096+467055341+467064637
2401.29+467084298+467098104+467096166+467078839+467053719+467027412+467001976
2408.04+466974996+466943547+466905452+466858574+466797455+466715766+466612675
2414.79+466496490+466388137+466313450+466288765+466312421+466364837+466417055
2421.54+466445379+466442610+466415829+466377733+466335722+466291653+466246002
2428.30+466208856+466197937+466226578+466291534+466368556+466424888+466433749
2435.05+466387425+466296677+466186188+466082504+466005087+465961334+465946302
2441.80+465947964+465955163+465958368+465949388+465919441+465865285+465794593
2448.55+465725602+465679516+465665630+465676311+465692174+465693520+465669824
2455.30+465623935+465564438+465502093+465443546+465392198+465349909+465316561
2462.05+465289503+465265016+465240726+465218613+465204015+465196499+465187954
2468.80+465162874+465110893+465035494+464953409+464884813+464840903+464820332
2475.55+464816534+464825910+464854986+464908390+464977065+465035494+465054007
2482.30+465022874+464963417+464913810+464897472+464903643+464896641+464846876
2489.05+464757196+464664350+464611262+464615891+464661027+464707509+464721078
2495.80+464693031+464643265+464604577+464605012+464651256+464729623+464814794
2502.55+464881846+464914957+464910843+464876189+464828481+464788882+464773138
2509.30+464781168+464795331+464792680+464759569+464698885+464624633+464548126
2516.05+464471658+464394953+464323391+464267573+464235213+464222871+464218243
2522.80+464209619+464194270+464178051+464167765+464161396+464151625+464127573
2529.55+464081843+464012179+463921510+463815571+463705755+463608044+463541149
2536.31+463519075+463540437+463588818+463642025+463685184+463715091+463735028
2543.06+463744285+463736888+463707574+463658284+463596018+463526552+463451588
2549.81+463373300+463301619+463253436+463242439+463269458+463319895+463371164
2556.56+463403721+463405145+463372272+463305417+463207033+463079455+462931900
2563.31+462782960+462659971+462588923+462582237+462629075+462699055+462757484
2570.06+462779162+462757800+462702774+462629787+462549720+462467002+462383769
2576.81+462307302+462249822+462224900+462233010+462259989+462280520+462270037
2583.56+462216395+462124855+462016819+461923143+461868473+461857831+461871044
2590.31+461874960+461845212+461784568+461715735+461662924+461632068+461612169
2597.06+461591322+461568259+461554097+461556668+461573085+461590214+461593893
2603.81+461577713+461542308+461492899+461434233+461368525+461297437+461225994
2610.56+461161394+461111589+461078676+461056720+461033776+460998212+460943660
2617.31+460868736+460772211+460650448+460501865+460335281+460176016+460054649
2624.06+459993491+459989179+460012242+460021459+459988862+459910219+459803528
2630.81+459690785+459587061+459493108+459402715+459308327+459203931+459088181
2637.56+458965390+458841491+458722497+458609556+458498909+458385572+458267251
2644.32+458144974+458021866+457898244+457772209+457640556+457506293+457375985
2651.07+457258771+457159874+457074980+456992262+456901434+456802576+456704944
2657.82+456621514+456559525+456517553+456491839+456478548+456476095+456480407
2664.57+456482227+456473168+456454377+456437011+456437090+456464465+456514190
2671.32+456568624+456605770+456611822+456587810+456547578+456511421+456497022
2678.07+456512252+456553077+456609172+456669618+456729669+456790234+456852421
2684.82+456915122+456974460+457027272+457074466+457119326+457163474+457204022
2691.57+457237726+457264191+457287887+457314352+457345722+457380257+457416770
2698.32+457458743+457513730+457588219+457683992+457795707+457913593+458026851
2705.07+458127370+458213688+458293637+458382605+458500729+458659796+458859490
2711.82+459086243+459325615+459574679+459848388+460173643+460572794+461051617
2718.57+461593102+462167856+462744232+463292164+463781154+464173027+464423752
2725.32+464496027+464373354+464070845+463633599+463122496+462597467+462104047
2732.07+461666721+461295380+460993703+460765842+460618485+460554122+460564882
2738.82+460631302+460726798+460828464+460922338+461008854+461096002+461195138
2745.57+461312747+461449700+461603743+461775153+461966461+462177706+462400503
2752.33+462618276+462816110+462988905+463144570+463297821+463462269+463646772
2759.08+463856593+464093750+464353732+464623011+464882163+465114612+465318302
2765.83+465507750+465705427+465928184+466177248+466440039+466700536+466952922
2772.58+467203964+467467191+467752768+468064177+468398688+468753098+469125705
2779.33+469514531+469916491+470327312+470743395+471164620+471590473+472019531
2786.08+472449736+472883145+473329530+473802578+474318745+474883807+475491197
2792.83+476122283+476754437+477374328+477985951+478609125+479268970+479980480
2799.58+480740094+481529495+482326848+483119137+483907787+484703123+485516339
2806.33+486353567+487218645+488118377+489066094+490079558+491173446+492354324
2813.08+493617287+494950270+496343739+497796704+499322577+500945172+502692536
2819.83+504586902+506641601+508859323+511241848+513793132+516521838+519437738
2826.58+522546568+525849197+529341394+533015285+536859004+540855421+544983134
2833.33+549216629+553528608+557888771+562268832+566645807+571007908+575352840
2840.08+579681830+583990526+588264569+592476266+596584872+600528043+604210914
2846.83+607498472+610220730+612195045+613259263+613306180+612306641+610309184
2853.58+607424338+603798748+599591323+594962436+590071944+585079825+580140162
2860.34+575386149+570919612+566810768+563108829+559853117+557072944+554781168
2867.09+552964179+551581115+550573070+549876316+549439979+549236013+549261568
2873.84+549525190+550026799+550742343+551627003+552632832+553729094+554906926
2880.59+556172302+557532264+558989265+560541366+562186905+563922639+565741288
2887.34+567629325+569570489+571548878+573549183+575557994+577565498+579576168
2894.09+581616665+583733274+585972713+588356504+590867280+593462632+596105693
2900.84+598792823+601555709+604431693+607427384+610496813+613550102+616482102
2907.59+619205785+621662760+623818136+625641691+627099444+628161882+628824101
2914.34+629118064+629111300+628885655+628508063+628012111+627393209+626618880
2921.09+625648575+624444119+622974381+621209571+619119823+616681520+613888411
2927.84+610758101+607327735+603644666+599762060+595741354+591657789+587596732
2934.59+583639558+579847187+576251741+572864099+569686278+566726151+563999423
2941.34+561527653+559331688+557434079+555859983+554636302+553778543+553277962
2948.09+553095199+553175029+553471406+553961622+554639823+555489987+556460253
2954.84+557449151+558306040+558835143+558806027+557968918+556091404+553004371
2961.59+548639818+543045056+536370212+528839547+520723843+512316787+503907712
2968.35+495754111+488056388+480946552+474497947+468740835+463671101+459255002
2975.10+455426039+452097102+449179739+446607567+444343324+442370394+440671015
2981.85+439208911+437931390+436783860+435729611+434755271+433868593+433083899
2988.60+432417368+431889808+431537456+431413636+431577094+432070237+432902442
2995.35+434046293+435449453+437043526+438744725+440449801+442040432+443398416
3002.10+444421730+445031850+445173392+444814829+443951571+442605850+440818768
3008.85+438643849+436149174+433427233+430598600+427794415+425128884+422678476
3015.60+420488287+418586168+416994785+415725769+414768281+414085294+413621543
3022.35+413319272+413132790+413033180+413004579+413030926+413083737+413121595
3029.10+413102132+412998091+412814142+412581969+412345802+412134438+411949143
3035.85+411763215+411537214+411237752+410853950+410399178+409904848+409405019
3042.60+408928490+408494329+408111635+407780248+407488896+407223257+406978030
3049.35+406766587+406615510+406545095+406549961+406601783+406670656+406749378
3056.10+406858680+407024195+407244302+407479718+407669087+407763238+407745990
3062.85+407632772+407459859+407271479+407114073+407029180+407038674+407133457
3069.60+407276978+407425799+407550964+407642345+407700497+407724391+407714778
3076.36+407681390+407647251+407636689+407658683+407698717+407730839+407732382
3083.11+407697253+407632179+407551241+407469631+407404477+407374214+407397317
3089.86+407485573+407640012+407844651+408071087+408285814+408462010+408587254
3096.61+408665027+408710480+408745648+408794266+408873899+408987077+409114062
3103.36+409220872+409274197+409260075+409193141+409111609+409061251+409072921
3110.11+409148637+409260866+409367675+409435994+409456802+409443352+409422188
3116.86+409415621+409437893+409490111+409567093+409662667+409771890+409891398
3123.61+410013517+410122146+410204666+410262541+410316460+410393205+410503970
3130.36+410632379+410747377+410821986+410849638+410844455+410828632+410824043
3137.11+410849835+410918431+411031412+411175130+411324544+411455920+411558853
3143.86+411637615+411704391+411766657+411820101+411848188+411836479+411785012
3150.61+411717841+411675315+411695134+411793557+411958004+412156947+412356404
3157.36+412537228+412694911+412834594+412958651+413063364+413144025+413202216
3164.11+413248342+413294666+413346686+413402069+413457531+413514417+413578146
3170.86+413653981+413744809+413849482+413963254+414073070+414157331+414196020
3177.61+414187158+414155828+414142378+414175528+414257138+414363631+414463043
3184.37+414534725+414573611+414587496+414589791+414595171+414616256+414662540
3191.12+414736871+414835176+414945743+415054096+415147376+415214864+415250625
3197.87+415255570+415236740+415210433+415194491+415201849+415238797+415304505
3204.62+415394185+415499808+415607527+415699858+415762638+415789420+415786967
3211.37+415769047+415749900+415740564+415744679+415757496+415766278+415759197
3218.12+415737400+415717106+415721339+415760542+415826091+415897179+415957783
3224.87+416004424+416040422+416065265+416071358+416051459+416007272+415952759
3231.62+415909403+415896783+415927837+416004028+416112262+416229713+416329876
3238.37+416399500+416443490+416473476+416492306+416484038+416427706+416324971
3245.12+416215986+416163847+416214205+416365202+416567745+416757549+416885958
3251.87+416937781+416928286+416890824+416860799+416860917+416897114+416960844
3258.62+417038419+417118922+417197486+417270116+417330404+417367036+417366917
3265.37+417321622+417232614+417117141+417003172+416920810+416888134+416901940
3272.12+416943200+416989286+417025087+417048190+417064844+417082013+417100764
3278.87+417115757+417117735+417100487+417065240+417021725+416983353+416958589
3285.62+416944387+416926308+416886472+416809609+416689073+416528502+416341507
3292.38+416150317+415979383+415849075+415769640+415739773+415746577+415770511
3299.13+415782853+415753975+415663503+415514682+415338802+415180764+415074310
3305.88+415025851+415016791+415021103+415021895+415011847+414991276+414963189
3312.63+414937594+414928733+414943686+414974503+414998555+414994599+414954525
3319.38+414883794+414790039+414675357+414539867+414389622+414243135+414123745
3326.13+414047277+414015986+414019032+414038535+414057800+414065198+414049572
3332.88+413998976+413902135+413757389+413580520+413403137+413257203+413157198
3339.63+413096989+413060041+413037532+413031242+413044494+413069773+413088247
3346.38+413077724+413026218+412941364+412848954+412781506+412763111+412794560
3353.13+412852593+412906275+412936142+412943421+412938595+412924630+412893181
3359.88+412837719+412761172+412676990+412592097+412498104+412381959+412237805
3366.63+412078422+411931262+411827340+411791975+411833353+411932647+412048871
3373.38+412135427+412162327+412131510+412066238+411997286+411949934+411938343
3380.13+411963384+412008877+412045311+412043056+411989612+411899259+411804277
3386.88+411732280+411690743+411661548+411614710+411528313+411405245+411272722
3393.63+411159227+411073028+410999527+410922782+410847778+410798527+410795481
3400.39+410836583+410899324+410959572+411006015+411039956+411066382+411085885
3407.14+411093955+411083432+411048303+410989202+410915306+410847185+410806677
3413.89+410808219+410852090+410923059+410991655+411021799+410982635+410872305
3420.64+410729536+410621303+410596855+410652594+410734521+410776137+410742591
3427.39+410647609+410536725+410453810+410413578+410403569+410399178+410379755
3434.14+410340315+410293318+410266260+410283903+410345497+410413301+410433199
3440.89+410376511+410266062+410155415+410070957+409981830+409822486+409557757
3447.64+409224986+408904082+408649362+408453861+408270465+408055421+407790732
3454.39+407482843+407152050+406821138+406507356+406213788+405924295+405612885
3461.14+405264449+404888598+404512589+404156676+403820503+403488404+403151915
3467.89+402824405+402534318+402303966+402132556+401994139+401852359+401680317
3474.64+401478210+401272028+401090610+400937556+400779636+400563604+400264141
3481.39+399919384+399621346+399449224+399402109+399403375+399359939+399225280
3488.14+399025151+398829531+398699303+398649181+398649577+398648192+398600049
3494.89+398491894+398364198+398300903+398376619+398595302+398860981+399015222
3501.64+398927915+398606537+398232743+398039892+398124707+398392364+398649854
3508.40+398728220+398568006+398231477+397845222+397506992+397243331+397025123
3515.15+396807746+396560541+396279948+395981119+395673349+395336346+394925010
3521.90+394409476+393819650+393243947+392763779+392380570+392014292+391579973
3528.65+391068079+390556896+390146787+389882770+389725879+389585127+389369214
3535.40+389039924+388648131+388311641+388136790+388150913+388295541+388470629
3542.15+388570753+388497490+388182204+387645150+387046938+386624882+386515066
3548.90+386651307+386834901+386869396+386670849+386318853+385998187+385855774
3555.65+385906093+386059503+386203657+386264498+386245945+386230003+386325301
3562.40+386580971+386915364+387097810+386811521+385871123+384559541+383556284
3569.15+383263032+383532311+384019679+384468991+384763192+384889583+384891205
3575.90+384816082+384693370+384541226+384392840+384307669+384357632+384591466
3582.65+384994731+385465563+385809292+385770287+385177573+384219689+383473368
3589.40+383363433+383796012+384414518+384901292+385082275+384961462+384711211
3596.15+384549058+384560966+384657688+384682531+384558750+384375750+384333461
3602.90+384577580+385092521+385722855+386260740+386544379+386565701+386514868
3609.65+386629708+386985898+387512231+388169308+389072363+390402339+392189144
3616.40+394179519+395858565+396577710+395926765+394205470+392236258+390651522
3623.16+389642172+389154131+389017890+388925915+388374580+386833635+384445295
3629.91+382385533+381556374+381715599+382244900+382759010+383153809+383483258
3636.66+383828885+384228353+384677428+385177771+385776181+386564554+387638702
3643.41+389045106+390755760+392658947+394493262+395662312+395146185+392449245
3650.16+389178420+387370214+387141365+387613424+387998610+387801685+386890640
3656.91+385595238+384487307+383886879+383720770+383778368+383942301+384231874
3663.66+384730120+385483009+386435394+387402613+388070173+388072111+387306841
3670.41+386337287+385998582+386452800+387159720+387429039+386895466+386004556
3677.16+385692316+386284555+387459618+388881213+390421327+392082848+393890263
3683.91+395829212+397838814+399825273+401662476+403184670+404228871+404808531
3690.66+405199612+405615338+405927499+405825990+405043156+403476576+401229225
3697.41+398525361+395522946+392169641+388281893+383881894+379511921+375990807
3704.16+373744523+372589596+372081974+371834057+371547451+370900107+369508260
3710.91+367248091+364774106+363122198+362627195+362905651+363483372+364058442
3717.66+364486274+364715479+364755355+364652580+364464398+364219962+363898901
3724.41+363484954+363057044+362805092+362909607+363405757+364180205+365053472
3731.17+365832113+366310462+366247879+365427978+363913221+362277018+361242192
3737.92+361089335+361644824+362583640+363600704+364416610+364763662+364481645
3744.67+363780302+363262672+363342660+363837940+364185862+363751068+362270253
3751.42+360456825+359477421+359614850+360386568+361283175+361961969+362193113
3758.17+361894125+361266560+360751105+360668150+360972438+361403435+361731142
3764.92+361883405+361926208+361921896+361801874+361427961+360808347+360202935
3771.67+359920641+360053323+360477238+361010573+361493313+361782411+361748904
3778.42+361357744+360782515+360344477+360236204+360363545+360486336+360432140
3785.17+360211203+359982354+359890972+359955651+360112503+360318922+360587133
3791.92+360937547+361330369+361653448+361796138+361761049+361708870+361813623
3798.67+362023009+362019132+361479981+360526093+359787604+359671459+359922422
3805.42+360025157+359682337+359043656+358575197+358602928+359100542+359865259
3812.17+360685239+361359524+361684225+361543711+361096416+360749721+360726776
3818.92+360764753+360371259+359387899+358344489+357892961+358045462+358399160
3825.67+358653327+358776751+358914852+359185436+359551278+359877087+360068078
3832.42+360157205+360265122+360469880+360698689+360733818+360340442+359494788
3839.18+358510202+357770289+357370900+357174252+357067284+357074761+357291822
3845.93+357774205+358498848+359396879+360384788+361341208+362024314+361952831
3852.68+360535469+358008434+355952509+355352912+355791187+356628337+357523796
3859.43+358337250+358980243+359336828+359277965+358804877+358208247+357916578
3866.18+358083162+358468902+358678842+358424754+357733618+356952049+356396877
3872.93+356094289+355969994+356063473+356451943+357064634+357655923+357931215
3879.68+357741490+357259383+356874157+356763431+356725336+356491462+356097652
3886.43+355886327+356111023+356653892+357153365+357253291+356830761+356173170
3893.18+355796132+355964298+356552225+357280864+357902614+358253622+358271977
3899.93+358002817+357540213+356920955+356127321+355233127+354483878+354123574
3906.68+354177770+354479329+354827766+355102464+355291556+355460473+355676466
3913.43+355938941+356162608+356225230+356047570+355672906+355276049+355050483
3920.18+355068918+355250494+355428391+355453828+355294365+355072003+354972117
3926.93+355078531+355313749+355507628+355504740+355254608+354859492+354518770
3933.68+354378374+354437713+354597097+354758023+354873773+354941181+354956807
3940.43+354889478+354710829+354455317+354241975+354184772+354280940+354408558
3947.19+354424461+354265512+353992515+353740128+353609820+353610691+353684350
3953.94+353761965+353798003+353779806+353723039+353652426+353581457+353507283
3960.69+353424011+353343232+353293585+353297027+353346990+353410008+353450793
3967.44+353453048+353424209+353382079+353335755+353276100+353184521+353052275
3974.19+352901911+352781018+352734101+352769071+352848506+352913106+352916073
3980.94+352846370+352726427+352599838+352508219+352475820+352497577+352539273
3987.69+352554582+352511819+352415730+352306586+352228259+352198392+352199974
3994.44+352202111+352188502+352165954+352152503+352152306
##END=
