##TITLE=Default
##JCAMP-DX=4.24
##DATA TYPE=INFRARED SPECTRUM
##DATE=19/9/2016
##SAMPLING PROCEDURE=ATR
##ORIGIN=Default
##XUNITS=1/CM
##YUNITS=ABSORBANCE
##RESOLUTION=4
##FIRSTX=599.84104
##LASTX=3998.2974
##DELTAX=0.96437467
##MAXY=0.25767422
##MINY=-0.00018115435
##XFACTOR=1
##YFACTOR=2.3997782e-010
##NPOINTS=3525
##FIRSTY=0.020585991
##XYDATA=(X++(Y..Y))
599.84+85782894+83737241+80708486+76789677+72253313+67490617+62796100+58152097
607.56+53240313+47698897+41409125+34624248+27832323+21552020+16161648+11837024
615.27+8555144+6118144+4219343+2584690+1153674+156384+0+1013807+3235217+6404024
624.91+10132547+14135058+18286998+22569026+26972788+31450287+35891274+40125210
632.63+43984595+47419506+50555465+53606077+56691617+59750673+62641362+65316554
640.34+67880070+70482675+73190093+75952651+78670440+81264444+83700202+85985444
648.06+88185276+90439037+92923383+95756977+98919233+102250572+105559059
654.81+108767328+111987642+115456115+119345957+123642359+128171302+132751535
661.56+137286844+141732147+146041557+150205047+154378534+159011299+164761474
668.31+171818758+179233827+185914697+191800610+197428088+203250541+209453008
675.06+216006089+222800653+229732290+236705250+243610155+250368673+256998627
681.81+263598030+270250740+276948314+283606085+290137712+296514012+302755444
688.56+308875575+314837273+320552366+325946153+331030465+335907228+340656294
695.31+345114140+348660541+350171907+348246623+341679912+329965213+313565838
702.06+293793616+272406361+251167387+231594362+214910504+202061070+193563363
708.82+189108404+187118139+184726623+178583393+166313108+147818933+125450720
715.57+102823854+83133626+68106620+57995092+52190988+49848464+50183740+52483699
723.28+56023642+60048569+63859024+66967321+69245826+70962381+72652950+74890628
731.00+78083839+82387319+87723453+93864323+100517127+107404087+114324422
737.75+121177355+127932085+134574644+141061688+147325690+153297138+158921480
744.50+164154134+168960730+173331676+177307115+180972518+184407181+187586016
751.25+190285642+192050600+192275380+190385055+186038481+179252765+170396932
758.00+160080183+149006728+137845440+127134054+117233118+108325033+100456741
764.75+93601573+87717802+82783075+78791492+75732591+73572654+72258405+71741442
772.46+71997021+73019459+74793017+77270750+80370043+83995086+88067018+92544579
780.18+97424664+102712581+108377626+114305080+120279973+126025399+131281307
786.93+135888334+139834929+143243854+146322501+149295806+152340519+155523484
793.68+158756683+161790032+164258327+165775965+166043993+164916802+162414169
800.43+158678910+153928788+148424287+142457559+136337397+130350147+124712609
807.18+119551829+114921828+110853838+107395580+104626285+102625960+101433447
813.93+101014499+101274890+102101888+103417999+105199722+107463945+110230074
820.68+113482025+117151651+121131095+125301446+129564690+133850194+138104807
827.43+142273947+146293441+150095296+153605248+156736768+159384670+161440257
834.18+162809987+163430119+163256194+162252849+160396583+157686867+154154748
840.93+149871727+144977982+139690064+134241106+128742132+123067027+116920600
847.69+110103852+102799870+95616458+89312389+84401972+80946678+78670052
854.44+77251873+76563128+76688573+77808048+80067553+83536879+88228214+94146292
862.15+101334236+109914171+120109665+132255793+146782431+164154801+184735580
868.90+208526070+234860921+262198557+288165237+309908662+324675370+330454761
875.65+326529712+313778541+294578979+272243800+250124706+230702554+214999438
882.40+202513672+191687024+180729017+168487823+155009765+141511217+129789470
889.15+121399076+117039634+116447227+118747201+122990962+128543788+135174952
895.90+142929224+151950460+162385622+174381529+188109328+203758872+221495346
902.65+241392176+263380235+287209674+312421354+338292006+363763457+387414965
909.41+407562328+422542919+431123180+432866932+428299894+418768665+406056799
916.16+391922176+377720336+364216711+351618695+339760000+328349436+317180853
922.91+306243786+295726599+285957240+277324820+270203642+264884864+261515648
929.66+260072198+260369705+262101380+264864497+268177983+271482901+274170636
936.41+275641671+275381498+273032206+268444180+261695224+253087564+243100985
943.16+232325968+221382351+210847172+201216732+192885421+186139942+181154220
949.91+177999089+176667920+177122370+179339014+183331419+189138721+196795475
956.66+206298839+217581086+230476920+244679427+259701419+274874439+289402583
963.41+302468942+313347547+321497746+326627417+328726439+328069827+325180660
970.16+320751749+315541449+310283368+305622754+302091411+300103288+299966185
976.91+301887029+305973367+312229484+320540568+330675226+342307775+355095985
983.66+368789648+383323784+398825901+415518980+433577193+453023237+473730780
990.41+495514317+518236529+541871583+566507342+592320526+619545229+648442617
997.16+679258025+712164569+747197271+784160410+822499178+861146428+898403893
1003.91+931969005+959174086+977454471+984929833+980917449+966161452+942673126
1010.66+913259861+880961216+848594765+818488594+792390399+771496605+756571588
1017.42+748106698+746465804+751968008+764873979+785282323+812973786+847232052
1024.17+886669385+929103495+971568403+1010536431+1042396568+1064092678
1029.95+1073741823+1070988206+1056973983+1033950927+1004715499+972056958
1035.74+938356854+905382006+874274695+845665236+819836094+796847252+776616124
1042.49+758968786+743685115+730530396+719265691+709640265+701413319+694395341
1049.24+688484870+683665823+679962480+677399306+675981019+675689922+676476528
1055.99+678257257+680933070+684436347+688760442+693951493+700059175+707088392
1062.74+714964756+723526078+732535532+741732510+750912722+759993646+769017257
1069.49+778076697+787227477+796438177+805603114+814584315+823261008+831553588
1076.24+839433119+846902706+853970732+860635147+866894337+872754885+878228898
1082.99+883310788+887970563+892163641+895838917+898929083+901344412+902998966
1089.74+903840215+903852509+903010888+901237921+898407680+894383250+889045285
1096.49+882298905+874075126+864354448+853183257+840676549+827001235+812365451
1103.24+797022294+781271925+765466231+750024034+735428860+722167588+710560062
1110.00+700521278+691382979+681916824+670616105+656172688+637948871+616224943
1116.75+592088170+567038990+542513634+519559533+498741214+480212080+463833507
1123.50+449288257+436172067+424087443+412721711+401882660+391487208+381524085
1130.25+372016017+362994672+354480541+346473283+338951599+331879475+325217916
1137.00+318928548+312977747+307338160+301989205+296919920+292126022+287612912
1143.75+283388415+279451164+275775825+272317070+269022554+265858124+262813163
1150.50+259899856+257137655+254543014+252116943+249836498+247659687+245540297
1157.25+243445140+241364699+239301676+237261145+235244258+233249320+231270946
1164.00+229296127+227305287+225280343+223209806+221091736+218927810+216720340
1170.75+214476871+212202728+209905223+207589663+205268732+202961928+200686497
1177.50+198447157+196234798+194039530+191859583+189700035+187564734+185449318
1184.25+183346399+181252608+179170475+177108880+175078424+173087290+171135880
1191.00+169215797+167321824+165461832+163651468+161907452+160230979+158616645
1197.75+157061705+155565320+154118438+152695696+151265223+149804836+148302521
1204.50+146751244+145144145+143482233+141784104+140083460+138410340+136780421
1211.25+135189653+133619313+132043711+130441238+128806321+127150183+125494403
1218.01+123855170+122235233+120626550+119009423+117357492+115645843+113862335
1224.76+112014963+110120447+108190646+106234237+104267180+102318394+100416768
1231.51+98579642+96805712+95081457+93379308+91648176+89815070+87797748+85520330
1239.22+82912183+79911418+76488739+72685083+68626843+64489898+60433210+56551145
1246.94+52866182+49356199+45980836+42706298+39523054+36449856+33516058+30739994
1254.65+28118063+25632522+23260007+20967515+18716176+16481820+14277936+12152260
1262.37+10152836+8301335+6601142+5061880+3708186+2567537+1651372+952614+448504
1271.05+102719-127013-270823-335757-313093-199663+0+282993+676963+1208487
1280.69+1882330+2673733+3537381+4422918+5278665+6052744+6708611+7239591+7666782
1289.37+8023216+8350094+8708066+9181082+9856384+10798178+12045955+13632749
1297.08+15590927+17936913+20645915+23650546+26850804+30122082+33325694+36337776
1304.80+39081132+41524030+43640625+45380357+46681644+47515736+47906105+47916024
1312.51+47633155+47166861+46629888+46090153+45544673+44954439+44318318+43711366
1320.23+43238350+42958338+42865647+42927818+43113324+43389114+43716784+44066869
1327.94+44435645+44830531+45249711+45685347+46146130+46665577+47275153+47984467
1335.66+48797851+49743727+50876988+52232560+53782036+55463896+57253303+59180512
1343.37+61290230+63619590+66204389+69080214+72265329+75749891+79508226+83521457
1351.09+87779974+92272817+96976594+101842995+106774874+111608132+116149828
1357.84+120265917+123952533+127330683+130583852+133879130+137301187+140867520
1364.59+144670477+149041873+154615050+162211619+172494076+185588176+201148569
1371.34+218829655+238338304+258492016+276095143+286742231+287769264+279786719
1378.09+265410396+247731079+229743110+213977481+201959577+193968836+189406253
1384.84+187438109+187433793+189047552+192005815+195906197+200323030+205053655
1391.59+210176697+215940704+222566094+229999573+237820782+245559717+253110492
1398.34+260643415+268193289+275561508+282639624+289699205+297327442+306077530
1405.09+316011469+326580660+337184779+347789984+358872474+370937570+384138270
1411.84+398200895+412625062+426980460+441135078+455413293+470609009+487460830
1418.60+505257597+521201016+532806865+540026710+544111186+546145941+546808607
1425.35+546524900+545455767+543442000+540158163+535499878+529976128+524618541
1432.10+520275941+517079129+514541444+511894070+508520539+504606853+501158033
1438.85+498854380+497485799+496522505+495644466+494811787+494045828+493175550
1445.60+491768999+489299928+485426913+480194911+473952393+467089898+459916406
1452.35+452671816+445433343+437787626+428213335+413788361+393127108+371926602
1459.10+357077122+348198997+341962905+335895399+328427240+318698055+307159237
1465.85+295820547+286678647+280142052+275440922+271636583+268009647+264166592
1472.60+260382155+257827844+257576783+259504147+262788015+266693908+270732278
1479.35+274508427+277570898+279409189+279658465+278294479+275560484+271706873
1486.10+266794469+260641738+252960163+243970377+235143246+228308911+223894407
1492.85+221066510+218733067+215927665+211895131+206405982+200185616+194481049
1499.60+189959556+186539315+183949549+181981793+180407308+178781860+176081474
1506.35+170451310+161261054+152303325+146513968+142787898+139684942+136641300
1513.10+133524170+130225819+126527296+122258363+117648658+113337859+109726267
1519.85+106412633+102490557+97585487+92536670+88327611+84880739+81505337
1526.61+77846756+74210110+71100967+68642863+66519243+64228607+61357159+57961499
1534.32+54737886+52395029+51023646+50250615+49509346+48030254+45090953+41216091
1542.04+38048393+35923866+34279860+32916906+31862117+31035406+30241869+29324261
1549.75+28279391+27250650+26381367+25699211+25163045+24757952+24489738+24257126
1557.47+23690434+22296294+20468187+19323571+18939830+18854017+18794958+18678143
1565.18+18504412+18300481+18068513+17753876+17284058+16699707+16203313+15960448
1572.90+15960495+16057501+16049444+15783915+15343033+15000701+14875442+14884462
1580.61+14921664+14931870+14887186+14771241+14587350+14367770+14150333+13954124
1588.33+13773493+13607508+13470506+13376107+13314922+13268444+13234192+13232337
1596.04+13282020+13382433+13523317+13692942+13865159+13993107+14027321+13959049
1603.76+13828559+13686992+13552497+13419204+13290600+13194254+13168050+13236695
1611.47+13408493+13682754+14047556+14474677+14925447+15371064+15810402+16255053
1619.19+16700282+17136647+17565032+17991191+18412180+18816861+19205344+19593951
1626.90+19994728+20410168+20848147+21335165+21894445+22525800+23210564+23934680
1634.62+24704831+25529073+26341192+27027267+27550261+27938232+28221978+28427012
1642.33+28584955+28733763+28897808+29076204+29271535+29555724+30036160+30717889
1650.05+31533950+32448850+33477862+34589576+35588520+36337000+36947934+37541831
1657.76+38148830+38741625+39253691+39577332+39575779+39163639+38426933+37571186
1665.48+36717015+35791303+34523578+32510649+29544593+26121845+23143192+20927053
1673.19+19143817+17389776+15558153+13861344+12544938+11639558+11018258+10552278
1680.91+10162290+9763080+9189806+8259635+7105810+6150821+5532754+5077462
1688.62+4610372+4099522+3633344+3314076+3160495+3103170+3030311+2842038+2516336
1697.30+2122572+1709826+1227143+646704+83291-326482-561515-680658-740148
1705.98-754880-707917-591689-423158-224128+0+196547+444398+737388+1028733
1715.62+1225726+1239290+1115055+1025314+1050171+1137883+1210404+1215158+1142043
1724.30+1029362+946641+955016+1081168+1327622+1686917+2146319+2685414+3262108
1732.98+3803772+4221119+4501327+4723858+4952220+5183557+5379337+5490677+5488415
1741.66+5372146+5161952+4884734+4568701+4235325+3886157+3493188+3016592+2450094
1750.34+1870511+1404027+1118738+990270+943979+897387+792947+623339+438787
1759.02+290900+186229+94307+1003-70360-88705-56892+0-46704-83547-91932-62010
1770.59-16548-10261-93374-253611-422021-541725-595457-590775-546828-482538
1780.24-409932-329783-229181-84170+137959+467856+916844+1475908+2134630+2911502
1789.88+3846557+4964032+6183927+7296853+8113495+8609204+8858577+8919431+8793856
1798.56+8441836+7810822+6896208+5799220+4702001+3756230+3008609+2425499+1951691
1807.24+1554494+1222912+958546+752173+584098+430039+276555+131076+24731+0+73504
1817.85+252208+487732+721199+917311+1067317+1171210+1223411+1220753+1175263
1826.53+1108250+1030101+934704+816595+685722+566229+470121+394120+328939+269004
1836.17+212136+166301+149291+181411+268876+396518+528751+622334+637635+575971
1845.81+483968+415335+391789+405902+435950+460762+469418+464107+457601+466698
1855.46+506029+580169+681812+797317+919044+1051580+1203657+1375279+1555969
1864.14+1736778+1915192+2083350+2207404+2230343+2122482+1932869+1752783+1637121
1872.82+1593830+1609913+1665396+1736371+1793270+1811972+1780803+1701517+1584598
1881.49+1454713+1353756+1333748+1424134+1604522+1815028+1987580+2083431+2107159
1890.17+2103829+2127124+2202353+2309767+2399509+2422254+2364156+2256865+2149367
1898.85+2074719+2039123+2038215+2064248+2104460+2149142+2199060+2270245+2383419
1907.53+2535754+2697583+2828545+2906389+2934816+2932375+2918262+2908844+2920261
1916.21+2963088+3037436+3126512+3202715+3234743+3201661+3111652+3017077+2990775
1924.89+3064245+3194313+3300938+3333298+3306885+3286361+3332899+3460892+3632509
1933.57+3788428+3890804+3943121+3993367+4105449+4319951+4625442+4953445+5202814
1942.25+5284482+5171385+4918769+4622800+4371281+4212601+4155450+4175059+4229667
1950.93+4275008+4275756+4207717+4058369+3838089+3588977+3381751+3291567+3359683
1959.61+3566059+3823661+4009360+4026590+3859237+3577957+3303276+3144854+3130853
1968.29+3203865+3264247+3250465+3155671+3019189+2897426+2866792+3014482+3408680
1976.97+4043209+4798108+5483081+5938754+6119946+6090272+5951254+5785443+5634262
1985.65+5513946+5430153+5380804+5346279+5289534+5170150+4960697+4668185+4346777
1994.33+4078354+3931901+3933501+4051787+4211551+4331587+4353536+4265761+4095385
2003.01+3896634+3742856+3709113+3835100+4093632+4387122+4594109+4646106+4575111
2011.69+4495637+4530657+4733171+5058044+5380237+5567998+5564792+5426596+5284500
2020.36+5262590+5408194+5682371+5994900+6259985+6443638+6561736+6657294+6757318
2029.04+6862244+6956715+7030055+7088366+7145808+7214359+7302621+7423127+7599407
2037.72+7850862+8168367+8498224+8754119+8859515+8794676+8621090+8461260+8457578
2046.40+8701447+9171251+9702854+10062082+10077001+9747854+9245291+8801949
2054.12+8579309+8600042+8773820+8980834+9139486+9224492+9241512+9204933+9131972
2062.80+9042030+8957216+8894088+8865817+8883290+8955540+9080177+9232587+9368341
2071.48+9445495+9444229+9378922+9284328+9203795+9177608+9235047+9380035+9578826
2080.16+9773054+9908477+9961668+9942543+9875612+9788106+9710629+9681615+9727403
2088.84+9838740+9966521+10050856+10069206+10051079+10055164+10123929+10264774
2096.55+10451467+10647975+10818676+10936345+10986598+10975640+10934847+10909304
2104.27+10936905+11026362+11153935+11280640+11378376+11444203+11491297+11535778
2111.98+11582218+11624193+11649287+11641493+11584697+11471611+11313033+11134994
2119.70+10963734+10813940+10685283+10573946+10476114+10390046+10312475+10242963
2127.41+10183139+10133766+10087008+10037537+10001557+10017562+10128394+10354294
2135.13+10683432+11084635+11517245+11926857+12239438+12386903+12346369+12169238
2142.84+11953069+11788517+11717452+11731369+11794791+11868767+11921962+11930874
2150.56+11888219+11803249+11700016+11619203+11624432+11814243+12303893+13172728
2158.27+14381722+15737612+16947410+17766516+18107566+18049008+17754564+17381654
2165.99+17032727+16741564+16494184+16256770+16003277+15741663+15512571+15373495
2173.70+15362094+15480423+15702463+15997621+16336945+16690808+17026517+17311684
2181.42+17530045+17676456+17750470+17753507+17688729+17573266+17437874+17324081
2189.13+17276129+17322020+17452592+17616846+17748518+17810102+17820130+17834188
2196.85+17899806+18016325+18142329+18234108+18274438+18287404+18307458+18357054
2204.56+18426485+18483163+18499841+18479457+18456464+18477939+18570475+18724922
2212.28+18904225+19066968+19182187+19234724+19220545+19155029+19072626+19021075
2219.99+19039392+19132145+19263375+19387520+19482347+19562681+19655438+19766838
2227.71+19865594+19912679+19894689+19842150+19799208+19793981+19817419+19845544
2235.42+19860811+19865723+19875105+19907374+19972443+20070097+20186606+20296031
2243.14+20373527+20409172+20414846+20412783+20415521+20414551+20389502+20332207
2250.85+20266636+20244653+20317128+20499756+20760523+21030575+21238091+21338258
2258.57+21328125+21240616+21126530+21033377+20987090+20992997+21036490+21096437
2266.28+21149848+21188331+21223439+21293081+21434525+21660421+21939842+22211442
2274.00+22418320+22538004+22585853+22598167+22612225+22653209+22726674+22822594
2281.71+22919934+22998085+23047024+23068602+23067075+23039715+22974541+22861205
2289.43+22697977+22498386+22280312+22058466+21836556+21607065+21358567+21086611
2297.14+20799151+20521549+20287086+20124786+20039954+20006247+19969935+19872512
2304.86+19675282+19376987+19012028+18636409+18299239+18021351+17788264+17562716
2312.57+17311371+17023067+16707263+16373202+16013839+15606965+15141665+14635440
2320.29+14127872+13640408+13142388+12562702+11839987+10984155+10076900+9234218
2328.00+8543261+8026944+7648298+7350790+7101251+6905050+6776619+6713133+6685029
2336.68+6643555+6538033+6339370+6059677+5761940+5541210+5524599+5853042+6627391
2345.36+7801574+9143558+10347856+11174051+11493462+11260692+10488214+9250167
2353.07+7686020+5984328+4326749+2855768+1668069+820863+304620+50737-29819+0
2362.72+70412+309835+819307+1680945+2893324+4357494+5926488+7482420+8969139
2371.40+10384967+11746589+13063074+14330426+15539659+16684805+17769752+18802743
2379.11+19792046+20738567+21634413+22468527+23228641+23899752+24465544+24912201
2386.83+25241260+25473571+25644157+25784702+25911314+26020832+26107047+26167663
2394.54+26206927+26228214+26231963+26224162+26216686+26222721+26243796+26270205
2402.26+26291497+26313770+26356310+26435249+26546342+26664090+26763755+26839554
2409.97+26901952+26966097+27029590+27073246+27073405+27016875+26912382+26791763
2417.69+26695672+26659862+26694898+26776695+26858064+26901065+26900351+26882629
2425.40+26879628+26898428+26918863+26924910+26930847+26974724+27087508+27260166
2433.12+27444509+27584483+27648560+27640435+27589120+27529735+27489766+27485348
2440.83+27521285+27592559+27687725+27792717+27890951+27962900+27995249+27984507
2448.55+27946056+27906403+27887588+27897355+27927852+27967185+28008375+28053495
2456.26+28101781+28147995+28182315+28199618+28203388+28200284+28192817+28178147
2463.98+28159329+28150880+28172873+28230661+28306239+28361087+28366387+28319958
2471.69+28248540+28186726+28156777+28160439+28191495+28246996+28333056+28453178
2479.41+28598306+28745301+28869714+28963235+29039077+29120818+29219054+29325485
2487.12+29417402+29479614+29515400+29553153+29629573+29772629+29985837+30245401
2494.84+30515498+30768150+31001274+31231586+31477897+31742506+32011096+32266383
2502.55+32499610+32712295+32911333+33101201+33288682+33478262+33669399+33846984
2510.27+33988558+34076269+34110976+34105713+34074826+34020936+33942523+33845823
2517.98+33749679+33675321+33628013+33595049+33555185+33495179+33414259+33321196
2525.70+33223646+33121172+33007431+32874651+32715392+32526052+32309047+32071387
2533.41+31831788+31617482+31460837+31380101+31363675+31368356+31343400+31260588
2541.13+31127585+30976440+30841596+30744044+30690117+30675331+30687989+30713548
2548.84+30740200+30767618+30807613+30873194+30961961+31053033+31117642+31136759
2556.56+31114974+31074267+31044388+31045570+31079997+31127878+31158589+31148943
2564.27+31093689+31015360+30949501+30924435+30942566+30981260+31008032+30999918
2571.99+30960851+30912817+30878454+30865418+30865832+30867999+30867539+30874078
2579.70+30900197+30949280+31012587+31071851+31116458+31148268+31180190+31221412
2587.42+31268103+31305173+31317734+31302728+31267701+31227534+31191085+31160653
2595.13+31130224+31095965+31059627+31032150+31030600+31064602+31129672+31208862
2602.85+31284989+31352260+31418110+31491954+31571271+31639869+31679908+31685584
2610.56+31671015+31662900+31683680+31738168+31810719+31877033+31916643+31923743
2618.28+31904907+31871400+31830668+31788846+31753043+31732890+31735065+31759132
2625.99+31798304+31842513+31884424+31919660+31946578+31963865+31971297+31969753
2633.71+31962625+31953639+31948045+31951427+31969260+32001327+32043249+32085170
2641.42+32119760+32143070+32155652+32161666+32165052+32165919+32161312+32148603
2649.14+32131294+32116287+32113977+32125137+32141770+32150085+32141537+32118972
2656.85+32089947+32057747+32019744+31973418+31924907+31884168+31861604+31857980
2664.57+31866622+31881504+31904705+31944884+32010135+32101890+32211286+32321455
2672.28+32413777+32476971+32511361+32527459+32543665+32575320+32633265+32717612
2680.00+32819275+32921497+33006302+33065140+33101410+33130338+33165189+33210117
2687.71+33257025+33291654+33305466+33297577+33275553+33251224+33236760+33242352
2695.43+33272929+33324661+33389771+33458718+33528213+33596508+33663713+33728291
2703.14+33790125+33850325+33909865+33969518+34028736+34089161+34162095+34261457
2710.86+34403496+34598192+34849629+35162109+35544119+36011946+36588174+37298062
2718.57+38156499+39159521+40278434+41453546+42608834+43651096+44486927+45029538
2726.29+45220283+45043599+44541173+43802353+42940280+42059105+41228226+40478939
2734.00+39819956+39255123+38796132+38455656+38234722+38119448+38079254+38081051
2741.72+38098565+38115532+38125351+38130334+38138286+38160197+38204761+38278785
2749.43+38384368+38518658+38674731+38838740+38997817+39139418+39258592+39356433
2757.15+39442619+39534972+39656928+39824675+40035577+40265216+40482777+40666901
2764.86+40824290+40978062+41151451+41347548+41549947+41735736+41897087+42047435
2772.58+42213998+42419265+42667428+42946388+43238738+43536211+43845097+44177761
2780.29+44540281+44921308+45298669+45656236+45995436+46336145+46704098+47116332
2788.01+47575862+48073657+48605775+49171796+49776070+50417206+51085262+51767981
2795.72+52456948+53155058+53871971+54616586+55389387+56184077+56991678+57807433
2803.44+58632463+59466671+60307066+61150092+61998869+62868343+63784760+64776093
2811.15+65863571+67056759+68351953+69737509+71201986+72743677+74381062+76151352
2818.87+78103406+80280915+82713235+85411665+88382913+91639234+95205753+99119804
2826.58+103424566+108156207+113338712+118979478+125072630+131602068+138543423
2833.33+145860833+153502855+161402271+169486743+177696707+185992174+194351350
2840.08+202756677+211183410+219597880+227960502+236226661+244337833+252204278
2846.83+259683164+266568695+272597331+277481297+280962406+282869403+283151247
2853.58+281877235+279208501+275357095+270555435+265040347+259050396+252818278
2860.34+246556852+240444033+234616054+229180942+224232849+219857526+216117936
2867.09+213033266+210573291+208670221+207247541+206241434+205608650+205323949
2873.84+205364109+205699819+206294788+207113201+208130423+209338103+210731755
2880.59+212300837+214024564+215886993+217892331+220064004+222430698+225005825
2887.34+227780150+230731583+233837163+237077968+240439531+243911217+247494346
2894.09+251215743+255126449+259288743+263744106+268492085+273487820+278670519
2900.84+284001654+289491749+295186072+301125820+307306430+313658296+320059837
2907.59+326366001+332424939+338091505+343227976+347718824+351493203+354542511
2914.34+356920645+358727081+360079456+361092891+361866177+362471934+362942109
2921.09+363260558+363362889+363155122+362535767+361423758+359765199+357532643
2927.84+354716436+351321234+347371347+342912973+338021122+332798154+327364502
2934.59+321852395+316387665+311078294+306004290+301221103+296771546+292700018
2941.34+289056875+285898841+283283383+281268839+279910969+279254575+279320332
2948.09+280096568+281542953+283609997+286253304+289441143+293141909+297302946
2954.84+301817484+306497688+311049545+315076117+318108443+319671284+319358610
2961.59+316896276+312176797+305263292+296372158+285846557+274125990+261702892
2968.35+249056753+236597858+224625935+213336455+202849569+193237835+184536150
2975.10+176736658+169787138+163603935+158095445+153178057+148781467+144839559
2981.85+141277712+138012861+134959766+132042578+129196985+126370501+123514678
2988.60+120600518+117644289+114726271+111978871+109537835+107491313+105857498
2995.35+104606748+103702180+103120360+102839175+102811008+102952667+103158361
3002.10+103322995+103352932+103166325+102697392+101904235+100772938+99310945
3008.85+97535672+95473945+93170796+90699808+88156744+85636562+83215124+80944171
3016.56+78860276+77000517+75400970+74089353+73069227+72312815+71768073+71378620
3024.28+71102744+70916742+70799819+70716551+70613662+70434870+70142974+69732665
3031.99+69224955+68653644+68043990+67401613+66711579+65950207+65094569+64134736
3039.71+63077459+61941440+60750121+59531268+58314329+57127136+55990650+54911559
3047.42+53885438+52905739+51972736+51099222+50303077+49599611+49002237+48519717
3055.14+48155610+47903423+47738979+47623822+47514540+47376475+47192036+46962223
3062.85+46698673+46419778+46142474+45882025+45651370+45457458+45297411+45159272
3070.57+45027664+44892198+44749110+44603601+44459648+44320235+44184149+44047406
3078.28+43906364+43756710+43592817+43408930+43197772+42956696+42689254+42408705
3086.00+42134157+41887035+41681667+41521907+41401895+41311141+41238930+41179308
3093.71+41131604+41097034+41074490+41057247+41033931+40999802+40964133+40943689
3101.43+40948629+40967362+40969539+40925480+40829770+40707146+40601074+40548081
3109.14+40558093+40612239+40676324+40720217+40730897+40712106+40675773+40634915
3116.86+40599906+40580234+40582527+40606663+40644707+40679553+40694867+40681373
3124.57+40642611+40594803+40558908+40552257+40578383+40625590+40670592+40690210
3132.29+40669657+40610256+40529996+40456469+40411529+40405870+40431996+40472253
3140.00+40508535+40531901+40540925+40543657+40546719+40552323+40554286+40541014
3147.72+40502690+40443728+40383334+40346997+40351387+40394069+40457944+40526127
3155.43+40592105+40663277+40751671+40863367+40987764+41100911+41178291+41210844
3163.15+41210600+41202520+41202834+41208224+41200804+41166773+41112091+41059513
3170.86+41034094+41049093+41100860+41177364+41264582+41351145+41431305+41499216
3178.58+41551441+41586768+41606964+41620757+41642389+41682249+41742329+41808265
3186.29+41854541+41861817+41827441+41769868+41722793+41717476+41768389+41866591
3194.01+41985570+42096497+42172617+42199791+42178454+42122969+42066157+42048021
3201.72+42098290+42224364+42398425+42571504+42695630+42751336+42751879+42733965
3209.44+42728869+42750979+42795632+42850791+42905624+42952163+42982674+42994391
3217.15+42993944+42997589+43022019+43070223+43127280+43170955+43185326+43172721
3224.87+43151706+43145066+43166958+43215503+43277764+43332399+43362150+43357834
3232.58+43321001+43266362+43214490+43186505+43190821+43218468+43254964+43287699
3240.30+43312028+43328953+43337025+43332492+43320213+43319546+43356491+43445534
3248.01+43575186+43709165+43810072+43855552+43849909+43819487+43796473+43801235
3255.73+43835430+43888768+43947420+44008062+44070816+44137000+44203188+44263295
3263.44+44311341+44346986+44369022+44375779+44367815+44349781+44336950+44346257
3271.16+44386556+44450769+44520741+44575329+44604897+44614762+44621748+44638362
3278.87+44669153+44707360+44736932+44741822+44713154+44662012+44618286+44616082
3286.59+44669793+44761816+44853739+44911005+44924859+44908148+44879038+44843722
3294.30+44799771+44746079+44691282+44644342+44607369+44569178+44524455+44475195
3302.02+44435129+44415872+44418984+44431616+44437496+44425104+44396106+44362351
3309.73+44337226+44333252+44353192+44395831+44455744+44521420+44579575+44616683
3317.45+44628326+44621802+44608860+44594143+44569352+44521858+44449224+44364637
3325.16+44289018+44235768+44204000+44186963+44178227+44175138+44176919+44172945
3332.88+44150479+44099336+44020737+43929071+43840843+43768892+43717866+43687099
3340.59+43678254+43696529+43741485+43802163+43854985+43878907+43868952+43840071
3348.31+43821148+43833780+43879959+43940426+43986500+43994041+43962831+43913567
3356.02+43876151+43871844+43898319+43934539+43958802+43957266+43933472+43894834
3363.74+43848892+43803397+43762438+43732555+43715406+43708219+43708560+43715216
3371.45+43729730+43755099+43792872+43839175+43889129+43932995+43964348+43982856
3379.17+43997491+44019988+44054117+44089130+44100772+44065786+43987385+43896805
3386.88+43841006+43852094+43924538+44020023+44092917+44118411+44100260+44058851
3394.60+44011792+43966393+43924872+43893763+43885473+43909857+43968687+44053216
3402.31+44143291+44214649+44246681+44235178+44197534+44157666+44132095+44119148
3410.03+44109194+44097691+44092056+44104265+44137295+44180074+44217427+44241155
3417.74+44254024+44267339+44296613+44354690+44446899+44563050+44684199+44791284
3425.46+44879756+44962465+45060810+45188984+45342891+45500028+45636886+45739493
3433.17+45809166+45856773+45894956+45934693+45979307+46024259+46061120+46080342
3440.89+46080594+46075079+46086314+46130052+46199531+46257143+46249408+46137065
3448.60+45921121+45643763+45360677+45112228+44913912+44757963+44622419+44480457
3456.32+44310130+44102251+43867361+43627954+43405969+43206709+43013787+42797623
3464.03+42537085+42235844+41917931+41613570+41345553+41119391+40927995+40760182
3471.75+40604101+40451129+40292642+40128854+39968512+39825094+39708226+39610374
3479.46+39506339+39374118+39211618+39046146+38912737+38819010+38738660+38633008
3487.18+38485810+38318847+38177529+38099190+38091114+38133629+38198463+38260984
3494.89+38307701+38341830+38380712+38445562+38547543+38675942+38801810+38895859
3502.61+38951002+38993773+39065395+39189086+39356130+39535240+39687389+39781163
3510.32+39799628+39747539+39642701+39506684+39352544+39182162+38986481+38752026
3518.04+38471175+38149261+37796246+37423081+37041595+36670122+36333057+36038538
3525.75+35758847+35436498+35027055+34540611+34042607+33612408+33298240+33099059
3533.47+32981658+32895775+32785542+32613515+32377386+32110772+31858954+31646259
3541.18+31471899+31318917+31167924+31003843+30824586+30644793+30495500+30400030
3548.90+30355294+30333223+30294649+30207768+30069066+29910346+29782776+29721986
3556.61+29723131+29748704+29744346+29679818+29571286+29474200+29447077+29514220
3564.33+29658707+29829282+29949919+29957999+29861550+29734413+29631593+29563540
3572.04+29521782+29500817+29501194+29521372+29542651+29542370+29516892+29492625
3579.76+29511043+29599321+29755389+29956914+30176737+30385912+30548765+30631714
3587.47+30638593+30629399+30673820+30784636+30934651+31090189+31227571+31340739
3595.19+31450937+31602232+31823611+32105172+32408275+32701071+32986199+33290121
3602.90+33631378+34010205+34430818+34937287+35622311+36587502+37867258+39414106
3610.62+41220779+43446388+46405132+50406265+55559101+61754537+68745621+75955950
3618.33+81979548+84675068+82827301+77532623+70993156+64788403+59571796+55439155
3626.05+52197124+49485638+46935841+44528856+42725338+41840709+41691699+41967070
3633.76+42465378+43092453+43820915+44667538+45677240+46905857+48407447+50220430
3641.48+52339835+54699896+57209022+59827647+62635165+65833331+69622720+73808393
3649.19+77291963+78912156+79005173+78505860+77753445+76620355+74872178+72458518
3656.91+69726122+67276983+65508292+64449824+63972788+63982602+64440564+65305719
3664.62+66481452+67817177+69129027+70211270+70837091+70848904+70393042+69921198
3672.34+69776876+70014479+70596570+71557497+73032414+75140316+77903790+81309431
3680.05+85336570+89937574+95037254+100549936+106384714+112487715+118940157
3686.80+126084761+134511323+144523811+155043902+163705226+169054973+171275219
3693.55+170861084+167940046+162522756+154878002+145573695+135157473+123809430
3700.31+111394342+98059970+84847364+73308444+64293864+57534394+52275544
3707.06+47880693+43957646+40217369+36370135+32293790+28369049+25211442+22975403
3714.77+21364295+20051209+18846331+17675827+16533831+15447502+14443712+13526691
3722.49+12677762+11866845+11082987+10340317+9675927+9143851+8793621+8646034
3730.20+8685585+8856872+9071078+9202875+9103818+8669641+7993515+7349072+6946512
3738.88+6806885+6834967+6927982+7018829+7082812+7109923+7090366+7028932+6972175
3747.56+6972417+7039664+7109528+7047872+6761608+6345978+5965773+5690755+5516529
3756.24+5403073+5291142+5117493+4865190+4591081+4376213+4247826+4187333+4175067
3764.92+4213525+4307818+4431341+4522932+4522507+4412031+4228888+4033813+3867211
3773.60+3739717+3650348+3593884+3563808+3553931+3558605+3570771+3582397+3591305
3782.28+3601301+3608908+3597619+3543217+3439842+3311822+3194342+3109982+3065253
3790.96+3058633+3089470+3153640+3242571+3347904+3470077+3613657+3776149+3931054
3799.64+4031220+4023517+3894688+3704172+3531702+3401273+3279975+3130668+2945106
3808.32+2758802+2621365+2557101+2564808+2629293+2735144+2865975+3007566+3145479
3816.99+3270262+3376702+3446980+3444598+3325348+3099572+2842114+2612048+2414793
3825.67+2242088+2105758+2035316+2054200+2163065+2346189+2580037+2834007+3071506
3834.35+3262663+3394750+3467971+3479928+3426927+3318746+3186131+3046139+2889976
3843.03+2705048+2503959+2327860+2222556+2208443+2282376+2430467+2638729+2894260
3851.71+3159931+3334610+3294751+3073601+2845308+2688821+2592070+2534737+2517585
3860.39+2554293+2652466+2793110+2922580+2978742+2951052+2889799+2844188+2823559
3869.07+2797499+2729407+2618526+2504721+2420565+2367578+2332942+2313183+2312644
3877.75+2329804+2347510+2338609+2286382+2208312+2139908+2099628+2081932+2078678
3886.43+2089322+2116146+2148834+2163062+2130273+2035266+1906278+1808240+1792716
3895.11+1865462+2005098+2183621+2367379+2519331+2605257+2609718+2536950+2402274
3903.79+2225576+2031736+1843126+1666911+1500265+1342857+1210103+1132276+1138462
3912.47+1239518+1416353+1622851+1800380+1891055+1865758+1744578+1592680+1474881
3921.15+1425919+1438948+1484007+1524942+1543076+1548725+1568381+1621481+1701622
3929.83+1782417+1827055+1806209+1719013+1591968+1457546+1337466+1241601+1174944
3938.51+1140423+1135755+1145311+1142271+1099174+1017211+935361+904098+948171
3947.19+1049567+1158895+1226647+1238593+1219377+1200379+1187462+1162383+1107449
3955.86+1021462+923974+840057+785237+761790+764938+784588+807928+818026+803587
3965.51+765702+719349+682223+660404+644773+620566+586264+555760+547294+565747
3975.15+596903+614164+600161+552832+485528+414971+355595+309897+273969+242057
3984.80+211339+187892+179318+188216+207102+224685+230220+216217+182460+131443
3994.44+73482+24096+0-16716+0
##END=
