##TITLE=Default
##JCAMP-DX=4.24
##DATA TYPE=INFRARED SPECTRUM
##DATE=19/9/2016
##SAMPLING PROCEDURE=ATR
##ORIGIN=Default
##XUNITS=1/CM
##YUNITS=ABSORBANCE
##RESOLUTION=4
##FIRSTX=599.84104
##LASTX=3998.2974
##DELTAX=0.96437467
##MAXY=0.43684524
##MINY=0.0024675617
##XFACTOR=1
##YFACTOR=4.0684384e-010
##NPOINTS=3525
##FIRSTY=0.12487544
##XYDATA=(X++(Y..Y))
599.84+306937036+302405014+297439649+292065829+286330379+280373542+274419305
606.59+268657667+263147231+257845747+252745487+247967924+243730231+240193839
613.34+237333989+234937625+232727231+230549380+228466647+226704082+225494189
620.09+224972302+225160762+225984322+227250180+228681515+230022731+231177483
626.84+232232814+233341984+234589035+235952850+237362923+238765782+240142928
633.59+241493283+242822431+244161212+245581376+247187968+249074531+251267216
640.34+253699198+256242232+258797956+261369594+264058473+266975149+270145480
647.10+273490207+276878372+280206508+283447124+286637856+289832727+293052759
653.85+296263800+299399721+302399007+305233549+307911513+310466816+312948537
660.60+315396745+317818729+320191194+322509965+324844302+327334263+330059219
667.35+332715171+334382544+334265817+332672062+330404934+327909112+325285172
674.10+322545932+319750434+317010022+314438237+312111445+310055760+308256606
680.85+306689552+305362199+304322947+303625272+303277964+303230789+303400113
687.60+303703066+304077332+304476961+304854467+305153173+305322551+305356595
694.35+305320097+305326873+305486545+305865407+306501733+307450499+308804681
701.10+310682142+313211807+316555270+320975398+326934708+335176455+346650285
707.85+362090261+381209452+401847241+419773846+429822293+428218063+414766782
714.60+393149022+368960428+347065553+330077423+318408448+311185350+307177871
721.35+305330773+304882999+305282994+306096262+306974870+307675933+308084719
728.10+308214705+308169985+308093216+308117316+308333265+308774611+309412640
734.85+310172927+310965226+311711779+312351163+312823825+313058636+312974798
741.60+312497632+311573405+310176920+308319676+306055753+303482888+300738319
748.35+297983146+295378453+293039354+290977773+289073703+287104438+284837804
755.11+282139952+279042361+275735414+272504192+269641686+267370841+265806332
761.86+264957300+264760287+265120982+265947710+267175110+268772234+270740107
768.61+273090926+275830313+278952388+282455103+286350761+290660352+295390118
775.36+300517664+306001766+311801660+317889271+324241434+330828773+337618326
782.11+344586030+351725620+359037463+366504419+374069276+381628017+389038019
788.86+396140470+402778537+408809011+414104690+418551921+422052365+424524966
795.61+425899402+426106524+425076484+422762841+419177315+414404659+408587715
802.36+401893867+394492106+386544248+378207089+369631201+360965432+352368044
809.11+344012756+336078376+328714011+322007160+315968188+310550471+305695369
815.86+301373454+297595695+294388280+291754872+289660034+288041612+286835784
822.61+285989645+285455799+285179491+285095470+285129221+285208663+285274920
829.36+285292116+285243587+285121163+284914994+284616161+284224223+283744713
836.11+283178398+282517440+281751934+280871311+279863320+278729151+277538396
842.86+276479293+275799327+275618100+275744625+275707981+275058048+273719597
849.61+272071782+270644000+269679539+268950091+267967849+266403615+264354963
856.36+262303142+260871074+260610405+261933730+265159312+270583090+278547906
863.12+289515159+304134945+323265381+347860343+378659680+415673209+457576451
869.87+501292912+542123041+574651797+594241343+598429224+587514567+564179841
876.62+532587802+497443677+463173710+433164510+409079972+390428900+374652696
883.37+357948492+336780501+309528562+277352664+243676573+212608454+187278184
890.12+168937721+157044631+150007594+146059084+143828097+142490003+141634890
896.87+141085762+140779072+140707349+140886881+141328182+142026489+142962811
903.62+144106017+145415808+146844964+148351850+149910361+151509133+153141290
910.37+154795010+156452531+158103203+159750504+161411688+163106146+164842944
917.12+166618804+168424807+170254764+172107008+173978115+175857829+177736517
923.87+179615645+181516034+183471582+185512012+187647212+189864766+192138340
930.62+194440135+196747295+199044108+201323891+203592319+205868658+208182118
937.37+210559875+213021324+215578861+218247284+221049100+224006450+227125101
944.12+230381027+233723575+237095936+240461284+243815130+247176815+250565860
950.87+253983949+257414052+260835400+264238418+267632114+271038684+274486367
957.62+278000344+281586822+285217307+288816074+292265350+295422258+298142983
964.37+300303089+301816211+302652937+302853008+302521229+301804564+300863068
971.13+299848924+298899883+298143221+297693158+297643712+298059530+298965883
977.88+300351655+302179268+304396987+306949415+309779159+312824338+316021076
984.63+319308758+322632333+325938767+329166418+332237162+335059068+337541411
991.38+339614530+341243336+342429037+343207821+343647555+343848450+343938990
998.13+344060187+344337301+344858456+345665405+346764119+348142145+349780803
1004.88+351665296+353788776+356155564+358773864+361641992+364738521+368020452
1011.63+371427901+374886627+378299314+381541762+384468346+386933658+388826502
1018.38+390102158+390796957+391024919+390946722+390727514+390504753+390369493
1025.13+390366160+390503948+390770440+391151097+391645478+392270468+393052218
1031.88+394011020+395152733+396465931+397920798+399464192+401016229+402483513
1038.63+403784037+404869859+405737095+406414790+406945431+407366413+407699529
1045.38+407951041+408124320+408233613+408311480+408404474+408566509+408848861
1052.13+409297569+409949955+410830597+411946928+413288254+414833699+416562311
1058.88+418463689+420541935+422811041+425285400+427972887+430871122+433963988
1065.63+437219072+440590921+444036351+447538589+451111589+454786483+458580962
1072.38+462478251+466425571+470348022+474163377+477797616+481197228+484337086
1079.14+487216897+489841937+492207003+494295138+496092242+497604502+498864152
1085.89+499921845+500829260+501625222+502326980+502931094+503418589+503766025
1092.64+503954834+503977908+503837740+503536049+503060421+502381480+501461319
1099.39+500273127+498815732+497111477+495195594+493104090+490860952+488467976
1106.14+485890771+483057621+479881833+476298797+472304559+467963470+463388999
1112.89+458704649+454008872+449353127+444731664+440082878+435304435+430286640
1119.64+424955764+419312356+413434283+407446808+401473507+395599830+389866981
1126.39+384288035+378867900+373613756+368536040+363650136+358979118+354554960
1133.14+350408870+346558719+342999857+339708733+336653335+333803740+331136910
1139.89+328635045+326282578+324064529+321967090+319979348+318091778+316292806
1146.64+314565952+312893085+311257321+309648696+308061864+306489866+304917025
1153.39+303320469+301676921+299971768+298204057+296384502+294528449+292650530
1160.14+290760359+288865775+286973554+285088072+283210409+281337782+279468507
1166.89+277607546+275767444+273968674+272231894+270568165+268974246+267433050
1173.64+265926320+264442829+262984995+261557194+260160690+258791308+257446924
1180.39+256130119+254847962+253609720+252428597+251320196+250296034+249351535
1187.15+248465271+247607595+246754789+245899438+245048226+244216884+243421911
1193.90+242676494+241984679+241343628+240749441+240199974+239692755+239219306
1200.65+238763163+238306415+237833332+237329062+236780328+236178595+235525550
1207.40+234830182+234102217+233345940+232565032+231764144+230947196+230111843
1214.15+229252994+228368452+227463070+226540363+225599508+224641018+223675770
1220.90+222720356+221782925+220854230+219916104+218958877+217988465+217021349
1227.65+216077308+215174819+214324943+213523872+212754062+211993500+211229220
1234.40+210452927+209642058+208743653+207680540+206369851+204748041+202788244
1241.15+200513553+197998008+195349180+192676508+190065679+187568795+185209021
1247.90+182988574+180897252+178927529+177083856+175379765+173820256+172391576
1254.65+171071365+169847810+168723366+167699040+166766811+165918419+165155586
1261.40+164486534+163911282+163420802+163011778+162695401+162485935+162386880
1268.15+162392209+162498224+162705839+163009416+163391135+163833836+164335048
1274.90+164902572+165544190+166263877+167070424+167974543+168975208+170052459
1281.65+171181591+172350133+173553800+174781072+176007520+177214483+178404982
1288.40+179596068+180802573+182038910+183335443+184741945+186309768+188075812
1295.16+190070697+192330408+194889264+197755249+200897872+204257085+207750551
1301.91+211266835+214673515+217856665+220766199+223416657+225839337+228041306
1308.66+230010095+231745483+233267084+234597825+235756038+236770073+237684026
1315.41+238538296+239351216+240138057+240943432+241838064+242876510+244072851
1322.16+245425788+246944733+248634961+250466255+252380397+254337465+256340024
1328.91+258409571+260547939+262739104+264981345+267293358+269689044+272165454
1335.66+274733228+277457195+280442875+283754254+287328004+291001928+294661183
1342.41+298315364+302054116+305979735+310172671+314674806+319480059+324550632
1349.16+329848252+335351199+341048521+346935383+353018673+359305055+365753434
1355.91+372230785+378554819+384603789+390414616+396195409+402263865+408896182
1362.66+416092726+423517268+430861599+438264092+446315896+455737960+466940023
1369.41+479740529+493593856+508116124+523164639+538157408+551325092+560243509
1376.16+563652277+562293699+558029233+552858560+548543036+546374103+546921336
1382.91+550053356+555334896+562483240+571522084+582464504+594750155+607230510
1389.66+618986802+629925888+640603464+651802963+664154797+677707606+691730622
1396.41+705282405+718075732+730457453+742669375+754547486+765991428+777456541
1403.17+789888440+804151945+820294595+837387916+854453694+871432229+889049525
1409.92+908044847+928584770+950150009+971838459+992823391+1012655769+1031236702
1416.67+1048355954+1062801931+1071974900+1073741823+1068537161+1057719014
1422.45+1041513659+1019939996+994628552+968666626+944320137+921491146+898567147
1429.20+874485026+850250027+828397492+810691414+796790509+784858558+772686925
1435.95+758910257+744474829+732113033+723260323+717056204+711986107+707114377
1442.70+702243965+697507167+692862959+687906842+682146194+675479192+668391794
1449.46+661568325+655386401+649886385+644996269+640579437+636218863+630823817
1456.21+622483875+610388535+598228402+590285709+586249606+584082358+582393046
1462.96+580437425+577932299+575202509+573102397+572278966+572705515+574079695
1469.71+576339497+579886090+585576416+594249767+605681513+618478136+631463238
1476.46+644097827+655892430+666160157+674063441+678688310+679276601+675654705
1483.21+668395603+658399276+646303093+632192687+615557120+595576516+572570181
1489.96+549886157+531895713+519760596+511689674+505327219+498721017+490455133
1496.71+480070861+468650176+458098192+449440554+442571558+437088097+432655223
1503.46+428870889+424921738+418939427+407653270+390294262+373950058+363536887
1510.21+356788172+351112790+345563804+339962333+334163483+327808317+320578590
1516.96+312762073+305287243+298713766+292390520+284976728+276110137+267272280
1523.71+259885188+253569615+247105284+239991937+232888350+226737522+221757708
1530.46+217376477+212677184+206879707+200041569+193420662+188344539+185003933
1537.21+182702449+180361392+176549900+170025081+161956998+155407163+150839843
1543.96+147149383+143962936+141327962+139099512+136938994+134570613+131982099
1550.71+129401505+127060667+125007473+123177837+121553243+120146923+118797283
1557.47+116910317+113725537+109955140+107397356+106105887+105299569+104533220
1564.22+103667293+102707146+101710417+100707206+99646052+98449116+97183551
1570.97+96100266+95376183+94951603+94605247+94064845+93159884+92050713+91107257
1578.68+90449157+89946773+89479294+89004279+88514193+88005536+87487458+86987299
1586.40+86521121+86066452+85583434+85063497+84540016+84045232+83574970+83106483
1594.11+82635534+82177083+81731196+81277259+80803682+80324546+79854403+79386319
1601.83+78909061+78443853+78039087+77719670+77464797+77237952+77031673+76866461
1609.54+76757613+76702509+76702577+76772382+76918910+77120785+77336797+77539917
1617.26+77743962+77968517+78203182+78432691+78660195+78893028+79114736+79294754
1624.97+79426141+79532110+79625617+79697258+79748956+79815597+79934568+80107865
1632.69+80301911+80470740+80576608+80606871+80589299+80573312+80588136+80640146
1640.40+80725173+80835519+80971219+81144956+81374145+81661340+81977132+82274665
1648.12+82549536+82833270+83130693+83408329+83596845+83599738+83410454+83184278
1655.83+83011374+82872121+82731989+82553720+82279069+81817340+81072949+80040107
1663.55+78878707+77802335+76893409+76067167+75115063+73759434+71845209+69650414
1671.26+67702928+66177807+64855718+63485769+62025389+60644849+59517205+58651127
1678.98+57948169+57311669+56671589+55928360+54895775+53431238+51803654+50532261
1686.69+49708501+49077023+48414830+47657967+46879902+46188238+45620000+45120885
1694.41+44581738+43903694+43074499+42182471+41281594+40325512+39328101+38455879
1702.12+37836694+37419886+37061337+36640616+36135680+35629602+35216943+34921193
1709.84+34712153+34557767+34448678+34389011+34375343+34375606+34307074+34055129
1717.55+33604269+33116256+32735925+32467493+32248835+32021303+31757114+31472674
1725.27+31216613+31035286+30946598+30945549+31019303+31152673+31330681+31536241
1732.98+31748527+31940007+32094737+32223389+32343465+32460015+32563916+32635814
1740.70+32654182+32608719+32504880+32355731+32171192+31947611+31661221+31263916
1748.41+30690596+29898556+28941366+27977455+27148525+26487007+25939390+25426716
1756.13+24892863+24338903+23812490+23345776+22914497+22466954+21994656+21555485
1763.84+21212221+20970094+20795754+20658803+20548142+20462072+20392483+20316023
1771.56+20206174+20056659+19894393+19758533+19671037+19633188+19634809+19661704
1779.27+19702016+19753931+19827759+19942623+20126617+20417386+20848889+21432720
1786.99+22156006+23014093+24043418+25315494+26865965+28560167+30059535+31076422
1794.70+31604201+31794671+31757114+31499214+30948628+30009014+28654147+27011804
1802.42+25328395+23817696+22561244+21539772+20704733+20019705+19458937+18994639
1810.13+18597228+18245658+17935096+17666996+17443456+17270466+17157245+17107008
1817.85+17106749+17133193+17171341+17219189+17277126+17336620+17385769+17423860
1825.56+17464670+17516735+17567316+17586656+17545971+17442422+17304739+17172634
1833.28+17072678+17012294+16983397+16966847+16944803+16915003+16886754+16866716
1840.99+16847195+16813196+16751211+16658855+16551385+16454072+16385195+16345524
1848.71+16322265+16299396+16271034+16245968+16234081+16235438+16239184+16242028
1856.42+16254302+16286991+16332409+16367039+16370140+16343521+16305210+16278076
1864.14+16281758+16326789+16403544+16467123+16442182+16284794+16041199+15804052
1871.85+15625839+15505175+15422352+15361609+15312553+15264791+15211480+15153460
1879.57+15093444+15027429+14944772+14841281+14729221+14631106+14563313+14528677
1887.28+14519390+14519584+14505781+14457990+14378149+14295542+14245052+14244987
1895.00+14286256+14337844+14363446+14339263+14263622+14159683+14066713+14015782
1902.71+14010753+14028354+14041956+14041698+14032608+14015717+13983356+13931785
1910.43+13870354+13813890+13770706+13741703+13730424+13740736+13768127+13794876
1918.14+13800547+13777022+13726106+13648640+13546951+13441083+13367632+13350816
1925.86+13380518+13424652+13458738+13479420+13493982+13506162+13512219+13507901
1933.57+13493854+13477295+13469434+13484318+13529359+13596634+13662238+13700906
1941.29+13704257+13682603+13655600+13632142+13606623+13571695+13528199+13487861
1949.00+13470078+13485477+13524461+13552621+13534191+13464600+13378907+13326850
1956.72+13330587+13371240+13409898+13419626+13394048+13338253+13260364+13168375
1964.43+13075619+13003611+12984160+13051144+13214433+13437346+13647093+13780503
1972.15+13827425+13841863+13909351+14095080+14406589+14787798+15147136+15398209
1979.86+15500268+15471347+15364966+15234714+15106479+14985487+14874767+14788830
1987.58+14743284+14736382+14747478+14748123+14717029+14655489+14582599+14522937
1995.29+14485013+14454056+14401108+14308632+14184635+14054270+13933074+13809314
2003.01+13667845+13519822+13414279+13401586+13483352+13602370+13687372+13715342
2010.72+13729200+13789268+13914445+14058203+14145111+14133892+14044470+13939713
2018.44+13870225+13844120+13842830+13854369+13881892+13928819+13981615+14017200
2026.15+14022422+14009850+14009013+14048919+14145369+14305795+14534740+14828701
2033.87+15157462+15453336+15631779+15635782+15471929+15211286+14950450+14768896
2041.58+14698773+14727028+14825474+14983228+15213159+15525447+15882772+16179366
2049.30+16280531+16108698+15696540+15173854+14688580+14334684+14126736+14030029
2057.01+14007466+14041441+14125704+14243182+14359835+14437223+14453733+14416843
2064.73+14360543+14322110+14321077+14348097+14376021+14378988+14346034+14283032
2072.44+14211393+14161681+14160585+14218035+14317660+14423744+14497139+14513198
2080.16+14467664+14371055+14239958+14095789+13962082+13863973+13817757+13817434
2087.87+13831614+13814277+13729844+13577173+13393403+13239492+13170243+13209408
2095.59+13341281+13518533+13686599+13808153+13873577+13893495+13883568+13857913
2103.30+13833549+13831099+13863135+13921213+13975749+13997925+13980905+13939520
2111.02+13893108+13846827+13791524+13717598+13623829+13520209+13420335+13335161
2118.73+13263778+13192982+13102608+12982744+12840290+12693283+12552284+12410659
2126.45+12252449+12066849+11859084+11653483+11488502+11411263+11456410+11622671
2134.16+11866419+12118265+12321897+12452823+12511404+12502456+12431773+12318099
2141.88+12202441+12135833+12155461+12262039+12414650+12548035+12602565+12553121
2149.59+12414201+12224968+12014212+11785871+11535710+11298276+11178936+11345090
2157.31+11944141+12985191+14273295+15482321+16339645+16769179+16874472+16808671
2165.02+16664090+16447868+16140414+15754654+15344053+14977098+14703611+14546028
2172.74+14498879+14531516+14593371+14637169+14635749+14598209+14558283+14557057
2180.45+14616592+14725351+14844958+14937158+14990907+15023429+15051757+15071374
2188.17+15067631+15041625+15019816+15028332+15060275+15076924+15042464+14955483
2195.88+14851217+14773025+14744446+14757219+14776895+14767154+14713094+14636718
2203.60+14587308+14608336+14709352+14859540+15009039+15116160+15159398+15140102
2211.31+15074407+14987745+14906446+14848572+14818378+14809797+14808185+14798701
2219.03+14771283+14726447+14674646+14628718+14595886+14577762+14572473+14576730
2226.74+14586147+14597886+14621882+14681097+14794895+14958257+15136036+15284800
2234.46+15378134+15413508+15401242+15352380+15277506+15193538+15117838+15061049
2242.17+15024784+15010782+15026977+15083957+15180631+15297579+15402405+15462891
2249.89+15463343+15411378+15339405+15288801+15290867+15352250+15456048+15574512
2257.60+15683690+15766406+15812770+15819938+15793849+15752070+15718881+15717977
2265.32+15763241+15847835+15943222+16012004+16027248+15990562+15929917+15883742
2273.03+15881481+15935600+16043073+16189249+16349401+16494392+16598301+16648708
2280.75+16654073+16639338+16638045+16675012+16754572+16856051+16944480+16989732
2288.46+16985401+16950686+16918752+16921273+16972860+17069509+17190156+17309395
2296.18+17412867+17500113+17579993+17660721+17743072+17829763+17933996+18079397
2303.89+18286952+18559806+18879551+19217726+19546870+19850316+20120974+20359537
2311.61+20576683+20795298+21047184+21359887+21745664+22199207+22710070+23276582
2319.32+23908721+24604780+25323377+25970094+26432349+26644015+26626532+26478070
2327.04+26323434+26258093+26313261+26455243+26615116+26733389+26791584+26809787
2334.75+26825969+26879276+27005669+27230632+27554422+27937287+28297419+28519585
2342.47+28479788+28070078+27274103+26229856+25196726+24417475+24024613+24047324
2350.18+24460701+25212102+26224639+27397606+28622122+29807936+30884965+31791263
2357.90+32478053+32936639+33199677+33311854+33279623+33071890+32635681+31945775
2365.61+31033059+29981531+28888608+27819531+26788127+25780203+24787883+23824723
2373.33+22919242+22090075+21331259+20615278+19909758+19197967+18486974+17800844
2381.04+17165328+16596880+16102108+15683433+15344181+15085442+14902187+14780573
2388.76+14703418+14658972+14643297+14657423+14699030+14758316+14820250+14872508
2396.47+14909865+14936190+14957354+14976388+14991746+15005038+15024461+15064405
2404.19+15136810+15240330+15359221+15467926+15542425+15569928+15554627+15513244
2411.90+15468959+15440555+15437327+15463537+15517958+15594074+15678977+15755106
2419.62+15810962+15847577+15875281+15902857+15929077+15948194+15957624+15964405
2427.33+15981456+16019821+16080148+16151653+16216187+16257403+16269742+16262958
2435.05+16256562+16268837+16309151+16376343+16464475+16564891+16667644+16762974
2442.76+16845191+16915649+16981522+17051731+17129961+17213435+17293164+17361323
2450.48+17416294+17463377+17509039+17552180+17582711+17591248+17577407+17552956
2458.19+17534522+17532453+17546683+17572232+17604121+17640539+17680322+17722629
2465.91+17766296+17809578+17852991+17899769+17956644+18029310+18118032+18215627
2473.62+18312519+18401717+18482053+18553655+18617558+18679003+18749194+18842379
2481.34+18966853+19116734+19275382+19425371+19562681+19700331+19860363+20061132
2489.05+20304609+20579666+20868679+21159521+21450571+21745600+22047139+22353181
2496.77+22662106+22976647+23307082+23664486+24054157+24470856+24901070+25329048
2504.48+25744680+26141567+26516750+26863680+27171890+27432729+27639303+27791451
2512.20+27889087+27933824+27928469+27883012+27813458+27738686+27673191+27619909
2519.91+27567023+27493052+27378220+27216796+27022441+26820292+26629531+26451720
2527.63+26275568+26088884+25890954+25692604+25503805+25324616+25148194+24970630
2535.34+24799084+24644952+24512717+24395406+24279994+24162710+24055849+23978345
2543.06+23941126+23938457+23951732+23963118+23963704+23955245+23944640+23938979
2550.77+23942946+23957457+23977173+23993378+23998647+23993506+23987131+23989798
2558.49+24008475+24040230+24078039+24114418+24144617+24165574+24176182+24179501
2566.20+24185945+24207358+24248752+24301670+24347821+24369108+24361817+24337342
2573.92+24316902+24320871+24358951+24427239+24509201+24581925+24629065+24647557
2581.63+24650617+24658627+24685715+24731424+24783715+24829823+24862514+24883354
2589.35+24898335+24912337+24928164+24946269+24964962+24981050+24992253+25000526
2597.06+25013552+25041170+25086896+25141549+25187020+25207737+25201875+25182330
2604.78+25170669+25182524+25220767+25276274+25333477+25378564+25404562+25413164
2612.49+25411731+25409777+25414011+25427760+25450631+25481193+25520747+25572033
2620.21+25634858+25701598+25758694+25795455+25814165+25830395+25862987+25919245
2627.92+25987631+26044026+26069257+26060913+26035811+26018340+26024923+26053350
2635.64+26087319+26109226+26113465+26108379+26109226+26126570+26161977+26210424
2643.35+26265201+26322457+26379717+26434567+26482440+26519098+26543036+26558103
2651.07+26572845+26594828+26625031+26655364+26675522+26678784+26666064+26642513
2658.78+26614659+26585500+26560649+26546689+26548777+26567170+26594372+26620400
2666.50+26640166+26654451+26669129+26689809+26719101+26756354+26800914+26852590
2674.21+26910988+26973172+27036472+27098535+27162035+27231220+27307916+27389709
2681.93+27472878+27555859+27640935+27728891+27816334+27896531+27964457+28021218
2689.64+28073017+28125340+28180607+28237052+28292063+28343809+28392748+28441821
2697.36+28496123+28561932+28643558+28741206+28849255+28960128+29068267+29172230
2705.07+29272018+29368611+29461877+29555151+29657198+29779212+29930162+30113330
2712.79+30327559+30571426+30845603+31152870+31495479+31875432+32295066+32757248
2720.50+33260653+33792340+34323370+34812788+35216810+35500801+35648155+35657824
2728.22+35541387+35318613+35021125+34689411+34365815+34080090+33844484+33657194
2735.93+33514777+33421877+33384720+33401920+33461399+33546225+33640382+33733891
2743.65+33820316+33893282+33950229+33996863+34046064+34115825+34219033+34359967
2751.36+34533779+34729638+34933618+35133101+35317823+35483108+35631905+35774406
2759.08+35921863+36082437+36256528+36440063+36625998+36811441+36996520+37182751
2766.79+37370333+37556497+37734191+37892664+38024656+38133649+38238498+38369542
2774.51+38553044+38795830+39082426+39384016+39677305+39955619+40227262+40503602
2782.22+40786888+41068530+41333580+41575410+41800222+42026998+42280373+42580681
2789.94+42935722+43336404+43762953+44192726+44611657+45019142+45426847+45852769
2797.65+46312025+46812624+47351368+47916873+48493727+49068164+49630578+50174817
2805.37+50695848+51190366+51664607+52140263+52653232+53242553+53933914+54727926
2813.08+55603156+56528751+57483886+58467026+59496081+60597643+61793847+63095676
2820.80+64506423+66031865+67688419+69501551+71494028+73675986+76044275+78592116
2828.51+81318253+84227393+87322283+90597777+94041431+97637469+101370059
2835.26+105222041+109177556+113225882+117365673+121601873+125938494+130373035
2842.01+134898271+139507803+144196181+148942686+153686883+158304427+162598396
2848.76+166324622+169244320+171186829+172089812+171998833+171030050+169327168
2855.51+167031728+164275823+161188414+157896557+154521705+151168353+147915595
2862.26+144819917+141923578+139270217+136905499+134868164+133173285+131803701
2869.01+130721552+129887233+129276317+128882255+128706522+128746436+128985211
2875.77+129392385+129931569+130572190+131296886+132104220+133000308+133990993
2882.52+135078197+136261280+137538886+138909696+140367970+141904175+143507150
2889.27+145167427+146878761+148637242+150440526+152288246+154187692+156156133
2896.02+158217128+160388589+162672052+165050358+167500508+170010449+172590347
2902.77+175265637+178058974+180970376+183970084+187003030+190005850+192922764
2909.52+195718134+198376540+200892177+203255522+205442969+207415989+209130573
2916.27+210551964+211665915+212483449+213035608+213362076+213503124+213491000
2923.02+213344129+213059781+212609773+211948724+211032812+209841763+208385504
2929.77+206692584+204792286+202703308+200439312+198025368+195508193+192956772
2936.52+190444523+188027392+185728620+183544267+181466039+179503770+177695404
2943.27+176095680+174758217+173721731+173006274+172614886+172535151+172743005
2950.02+173216546+173947038+174940872+176203141+177714413+179412387+181187185
2956.77+182886698+184324516+185290222+185573782+184993421+183427448+180827900
2963.52+177220270+172695354+167400683+161536254+155337610+149043060+142858207
2970.27+136932264+131359050+126195903+121479807+117229469+113438278+110068846
2977.02+107065018+104376817+101975848+99853604+97998686+96376840+94925452
2983.78+93572918+92261295+90959663+89662874+88383071+87144353+85986103+84965238
2991.49+84145945+83585564+83317313+83347374+83666966+84266363+85137638+86258886
2999.21+87575242+88995150+90407119+91701353+92780317+93556875+93952842+93910529
3006.92+93408603+92466860+91137190+89482893+87571305+85471275+83254096+80988928
3014.64+78736634+76548285+74468582+72541786+70808536+69295135+68004105+66917908
3022.35+66009797+65258827+64656618+64197989+63867286+63634265+63462671+63324801
3030.07+63206585+63101079+62999830+62895152+62782183+62657553+62509258+62311879
3037.78+62037118+61672705+61235232+60760758+60285486+59827993+59389325+58961727
3045.50+58538003+58114040+57687898+57262997+56852289+56472937+56139854+55857026
3053.21+55619445+55421993+55266528+55158449+55097013+55066732+55045022+55013670
3060.93+54968052+54911313+54844667+54762954+54661692+54546777+54434888+54343835
3068.64+54280367+54241273+54218111+54203181+54189057+54165896+54124664+54063086
3076.36+53987389+53909489+53838553+53778665+53730621+53695761+53675754+53668397
3084.07+53666122+53659566+53643574+53621026+53603028+53601957+53627380+53681779
3091.79+53759194+53847655+53930032+53989998+54016035+54010344+53987187+53969318
3099.50+53976612+54016035+54080488+54151575+54208872+54239666+54241808+54223866
3107.22+54201913+54191869+54203383+54234309+54273806+54306880+54323618+54322409
3114.93+54308015+54294161+54296034+54327299+54392910+54485240+54587757+54684258
3122.65+54765362+54831404+54885524+54926989+54954386+54970863+54985738+55010790
3130.36+55051587+55102841+55151884+55187127+55203339+55204616+55200793+55208499
3138.08+55243811+55317452+55427020+55554896+55675950+55765913+55814654+55826919
3145.79+55819145+55813042+55824909+55861718+55919510+55991055+56071720+56161312
3153.51+56260304+56361383+56451135+56515332+56550621+56569136+56591881+56636428
3161.22+56706343+56789013+56866047+56924232+56967520+57011682+57074976+57164985
3168.94+57277364+57399082+57518868+57630139+57732825+57829679+57922375+58010846
3176.65+58090393+58154421+58200309+58233034+58266831+58317096+58393842+58497407
3184.37+58615435+58727965+58816568+58872776+58904041+58926158+58954132+58992928
3192.08+59040400+59095811+59165351+59256953+59370760+59494062+59605136+59686753
3199.80+59734660+59759488+59776716+59799323+59831019+59869312+59912178+59965144
3207.51+60037568+60135168+60250348+60363990+60453605+60507409+60531445+60545991
3215.23+60572320+60618588+60674686+60723243+60756047+60783255+60824139+60889211
3222.94+60972338+61054326+61122639+61176475+61223778+61271753+61320947+61368927
3230.66+61414083+61454587+61489702+61520299+61552988+61597544+61661447+61745711
3238.37+61841850+61940022+62031656+62112175+62179956+62234987+62278494+62316869
3246.09+62359571+62416232+62490437+62576321+62661939+62735219+62789810+62829083
3253.80+62863704+62907436+62971756+63058620+63160212+63262147+63355315+63443227
3261.52+63537086+63643046+63754211+63852287+63921731+63960234+63978071+63992662
3269.23+64017861+64062788+64129543+64217245+64321108+64434310+64546236+64645735
3276.95+64723612+64777901+64816707+64851726+64891214+64932189+64964983+64982834
3284.66+64989257+64995141+65010830+65038827+65073855+65109831+65142973+65174962
3292.38+65210942+65255512+65311587+65376456+65448363+65521629+65588138+65639286
3300.09+65666152+65667099+65648896+65624878+65606675+65600115+65603631+65614999
3307.81+65633403+65659248+65689766+65718994+65745182+65772862+65815765+65885131
3315.52+65979952+66084661+66177807+66245368+66289512+66322279+66356675+66396891
3323.24+66440160+66482482+66523719+66568416+66619546+66675823+66730213+66778298
3330.95+66821311+66867305+66923938+66992223+67064514+67130167+67183765+67229978
3338.67+67277075+67330201+67390181+67460192+67547015+67657846+67791806+67934529
3346.38+68064049+68160692+68217188+68240587+68249066+68267924+68318729+68413898
3354.10+68550194+68708016+68864163+69000380+69112040+69204027+69284678+69360856
3361.81+69435821+69512347+69595539+69690144+69799364+69920958+70048477+70173702
3369.53+70290989+70401897+70510513+70621920+70737760+70855994+70972475+71084409
3377.24+71194723+71311441+71444500+71597442+71763950+71927829+72074581+72199156
3384.96+72311288+72431124+72577400+72755573+72956802+73160453+73346286+73505637
3392.67+73644693+73781250+73932278+74104266+74291082+74482638+74670956+74855346
3400.39+75039837+75230642+75431788+75642536+75859409+76077006+76291640+76500574
3408.10+76704422+76904690+77104651+77303412+77498044+77685662+77869892+78064625
3415.82+78285884+78541233+78821918+79106376+79371110+79601966+79805040+80004378
3423.53+80228375+80494959+80801136+81129097+81461288+81791986+82128636+82478316
3431.25+82835056+83182355+83503613+83788565+84036625+84248874+84429423+84584993
3438.96+84723853+84850735+84962756+85052610+85109655+85119443+85063286+84921909
3446.68+84686036+84365932+83987482+83574622+83138742+82678433+82187183+81656808
3454.39+81080430+80456877+79794684+79108161+78405853+77681899+76920549+76114721
3462.11+75275770+74431132+73604954+72802912+72017609+71243628+70489713+69773959
3469.82+69107563+68485402+67889236+67305872+66737185+66198926+65706074+65259706
3477.54+64844561+64436540+64018470+63592058+63182082+62822943+62534558+62305877
3485.25+62104689+61902462+61692525+61492463+61332068+61235837+61214072+61265353
3492.97+61381463+61551303+61765058+62014465+62297380+62614101+62966894+63357407
3500.68+63784336+64241166+64715431+65191599+65659179+66110721+66538955+66931524
3508.40+67274227+67553996+67758179+67870388+67871541+67744146+67478423+67072508
3516.11+66530151+65864556+65099283+64258738+63349849+62353093+61240420+60015556
3523.83+58730048+57461457+56264397+55148134+54100500+53117026+52207880+51381290
3531.54+50632196+49942835+49288164+48641354+47984421+47321042+46686987+46132964
3539.26+45692447+45364903+45119026+44904264+44664069+44351697+43954944+43512412
3546.97+43093050+42747559+42476264+42245024+42013895+41759924+41486367+41216720
3554.69+40972789+40759519+40567112+40386169+40212859+40047697+39895707+39763487
3562.40+39659148+39582155+39504173+39355827+39050149+38574883+38056106+37631169
3570.12+37322100+37068123+36804789+36499118+36159508+35823492+35532901+35304933
3577.83+35119293+34936379+34724970+34485016+34244855+34038114+33879687+33752017
3585.55+33599082+33336865+32911506+32385441+31894380+31516253+31236531+30998735
3593.26+30744162+30436032+30073801+29685330+29295036+28899461+28473122+27993197
3600.98+27470071+26955292+26514207+26181798+25946234+25752632+25527003+25217379
3608.69+24838549+24461287+24139084+23864607+23596574+23313064+23036197+22807503
3616.40+22645338+22526476+22395155+22199727+21943476+21688262+21495106+21390200
3624.12+21371699+21421359+21503091+21546395+21440769+21113701+20668729+20292353
3631.83+20045119+19880587+19748357+19632021+19547712+19519198+19560153+19674665
3639.55+19872095+20178681+20638371+21309709+22270280+23632026+25538341+28079939
3647.26+30994347+33058568+32251259+28434633+24130948+21045563+19197967+18102112
3654.98+17350911+16716115+16134729+15639268+15254336+14954450+14701353+14479466
3662.69+14298443+14179413+14137503+14171159+14262333+14375634+14463279+14489592
3670.41+14481595+14539706+14751026+15139779+15645145+16051985+16036807+15519378
3678.12+14764316+14037121+13449716+13019648+12729018+12549902+12456878+12430937
3685.84+12457715+12517906+12574302+12564967+12435894+12207462+11963573+11755442
3693.55+11581313+11417051+11244584+11062888+10885207+10722017+10564571+10380998
3701.27+10137782+9839075+9539359+9303716+9163613+9117023+9147120+9227276
3708.98+9306347+9293639+9086285+8686708+8250475+7925372+7742317+7669129+7670154
3717.66+7723731+7820829+7953769+8110318+8269711+8411236+8522955+8603064+8649375
3726.34+8660665+8638792+8598254+8554768+8519300+8492555+8466838+8425665+8349801
3735.02+8228931+8081404+7936205+7808780+7695789+7587680+7479134+7367780+7254772
3743.70+7152024+7089124+7099437+7194364+7356760+7557179+7745521+7835956+7766799
3752.38+7589218+7407438+7268160+7167589+7087011+7008616+6923376+6838782+6773276
3761.06+6742605+6745166+6767705+6797864+6828856+6860554+6892444+6916459+6912040
3769.74+6857224+6750609+6616602+6487414+6380836+6302749+6253980+6236956+6250140
3778.42+6283036+6316766+6336607+6343392+6347808+6355681+6364322+6366050+6355745
3787.10+6333023+6301085+6261852+6220572+6183902+6159392+6153505+6170463+6215452
3795.78+6293405+6400295+6519357+6626206+6695544+6704572+6646949+6555335+6479732
3804.46+6441197+6428779+6417193+6384740+6329887+6270684+6228508+6216797+6240924
3813.14+6300637+6387237+6484149+6569292+6636513+6699514+6773212+6843968+6869967
3821.82+6819379+6716866+6612505+6528896+6462385+6398630+6327839+6252636+6185886
3830.50+6147745+6157728+6224732+6340895+6487030+6641187+6784417+6888922+6918060
3839.18+6852421+6716417+6555399+6404519+6277852+6182814+6122788+6101990+6124580
3847.85+6193886+6311454+6474483+6670638+6864908+6977875+6921070+6733769+6554375
3856.53+6451695+6419561+6437548+6487926+6557832+6638818+6721539+6788515+6817074
3865.21+6802154+6768089+6749520+6764503+6802538+6826423+6795559+6701947+6571852
3873.89+6438188+6327007+6252636+6216157+6210589+6231580+6282588+6372899+6499385
3882.57+6638370+6754002+6814000+6807917+6760213+6718466+6712447+6740940+6774108
3891.25+6766232+6686581+6553607+6421418+6331359+6295645+6307934+6358561+6440237
3899.93+6550214+6681971+6808429+6877908+6843520+6709310+6536770+6388196+6288285
3908.61+6230620+6202653+6199389+6227292+6291357+6387044+6495544+6590354+6648550
3917.29+6659818+6634273+6594515+6560585+6539907+6526783+6506427+6464497+6401254
3925.97+6339423+6313758+6348384+6442669+6567819+6671214+6703291+6651943+6554183
3934.65+6464689+6420521+6431211+6484854+6557704+6621980+6650983+6630303+6566154
3943.33+6485365+6420713+6388645+6384292+6393061+6402663+6407784+6406951+6398886
3952.01+6382372+6359201+6335839+6320670+6317918+6324894+6336543+6346464+6351904
3960.69+6353249+6352672+6353825+6359970+6369827+6380964+6390053+6398054+6409448
3969.37+6429099+6457456+6489014+6513532+6523327+6514492+6490487+6457328+6420137
3978.05+6380196+6334431+6282077+6230108+6189533+6168607+6162784+6158304+6142113
3986.72+6112869+6081194+6065132+6078570+6124323+6191966+6261084+6306717+6311902
3995.40+6276508+6219612+6168607+6145377
##END=
