##TITLE=Default
##JCAMP-DX=4.24
##DATA TYPE=INFRARED SPECTRUM
##DATE=19/9/2016
##SAMPLING PROCEDURE=ATR
##ORIGIN=Default
##XUNITS=1/CM
##YUNITS=ABSORBANCE
##RESOLUTION=4
##FIRSTX=599.84104
##LASTX=3998.2974
##DELTAX=0.96437467
##MAXY=0.38693404
##MINY=0.002339652
##XFACTOR=1
##YFACTOR=3.6036041e-010
##NPOINTS=3525
##FIRSTY=0.12214543
##XYDATA=(X++(Y..Y))
599.84+338953521+332426310+325342374+318036984+310803958+303800698+297023170
606.59+290339282+283611376+276831781+270196541+264035037+258646004+254154924
613.34+250469748+247353868+244582419+242076421+239939002+238334780+237336181
620.09+236886492+236883350+237262081+237976973+238940362+240000367+241005830
626.84+241878930+242640403+243370512+244157912+245052060+246036910+247045040
633.59+248018911+248979427+250035999+251319919+252905450+254786432+256904767
640.34+259184928+261544441+263911915+266260098+268626165+271095754+273755287
647.10+276642539+279721452+282888276+286022908+289061338+292041112+295066971
653.85+298215084+301457704+304665300+307680966+310410878+312868579+315158685
660.60+317407440+319686134+321978369+324220901+326363551+328386903+330220249
667.35+331600785+332106152+331621398+330539146+329227522+327760213+326078520
674.10+324163279+322083648+319957394+317885021+315922433+314105276+312475272
680.85+311092111+310020693+309304230+308928703+308815464+308855657+308966477
687.60+309119640+309330136+309616986+309973305+310365331+310759982+311158768
694.35+311611476+312196671+312982376+313995551+315228651+316667325+318317880
701.10+320223652+322474847+325228908+328745621+333425199+339830673+348596880
707.85+360130050+374090093+388902747+401725108+409218230+408963758+400752663
714.60+386806679+370691974+355709452+343823664+335542810+330417906+327649351
721.35+326497569+326431738+327090993+328192018+329469300+330682799+331674658
728.10+332416862+333001457+333573358+334254157+335095850+336080990+337144758
734.85+338198622+339149957+339915814+340429080+340635668+340485007+339921066
741.60+338879007+337289113+335091571+332263430+328843477+324943567+320737124
748.35+316426415+312199173+308183377+304415314+300840524+297351971+293853679
755.11+290309758+286764761+283332548+280173994+277469512+275385271+274039925
761.86+273476749+273654764+274465362+275772417+277460022+279471776+281823577
768.61+284579768+287811492+291559025+295822780+300577967+305798702+311468216
775.36+317570569+324082149+330962681+338162110+345629160+353320662+361204300
782.11+369258841+377470804+385818893+394255970+402695320+411013265+419065449
788.86+426705862+433791927+440179166+445713918+450238389+453606860+455705988
795.61+456463740+455840750+453823621+450423682+445686172+439698588+432591144
802.36+424541028+415773601+406545030+397100444+387626747+378240878+369026698
809.11+360089195+351578598+343655408+336433443+329945639+324159413+319029050
815.86+314534537+310680506+307464206+304847987+302768625+301162625+299987603
822.61+299214366+298807268+298711810+298862678+299189865+299622414+300088478
829.36+300522475+300877781+301139303+301318125+301440254+301528000+301588703
836.11+301609461+301559551+301386663+301003549+300282558+299078094+297296540
842.86+294962106+292214475+289220600+286076643+282806525+279474050+276279956
849.61+273503792+271282142+269409306+267366726+264599205+260852375+256318352
856.36+251523984+247086928+243527624+241213865+240396651+241265905+244009877
863.12+248884134+256303321+266924625+281661131+301544975+327373149+359163394
869.87+395596767+433729612+469256618+497393010+514123097+517314504+507258836
876.62+486506069+459174114+429978523+403182845+381616999+365929074+354323045
883.37+343074389+327965126+306237723+278055473+246472477+215906048+190136550
890.12+171012206+158323914+150569869+145957941+143092584+141162167+139786884
896.87+138800638+138118620+137694403+137508480+137558473+137848703+138380691
903.62+139146144+140123158+141279438+142580424+143992903+145482738+147014255
910.37+148550734+150057771+151511621+152903951+154248253+155579095+156938489
917.12+158359631+159856847+161427781+163063264+164755087+166496780+168282304
923.87+170103151+171947290+173805457+175676391+177570295+179504702+181493568
930.62+183539664+185632920+187759939+189911065+192081977+194272987+196494037
937.37+198768430+201135882+203641860+206322441+209191767+212240969+215446931
944.12+218782280+222222412+225750889+229364259+233069821+236877933+240786237
950.87+244771268+248788676+252787890+256724312+260569495+264313099+267965029
957.62+271551088+275095071+278593838+281991399+285174660+287989259+290273844
964.37+291892373+292767706+292901434+292378803+291348963+289988359+288462352
971.13+286905932+285423591+284105206+283037882+282310503+282004652+282174852
977.88+282831501+283935358+285410028+287166173+289118423+291197309+293348787
984.63+295535330+297730516+299909554+302041679+304085232+305991211+307710739
991.38+309199489+310421009+311353158+311996017+312376030+312549372+312597711
998.13+312622563+312733652+313031087+313587254+314439327+315590655+317023292
1004.88+318711311+320631018+322767486+325113271+327661508+330396652+333287377
1011.63+336283981+339319289+342308821+345157121+347769039+350070206+352027005
1018.38+353659986+355041596+356279389+357488608+358770066+360195343+361802935
1025.13+363599003+365565560+367673992+369905029+372263012+374773000+377462451
1031.88+380340213+383389332+386569078+389820609+393065524+396207062+399148090
1038.63+401816948+404191430+406300565+408205551+409969201+411631623+413200800
1045.38+414660522+415991147+417192468+418290577+419328977+420351663+421393577
1052.13+422488585+423681718+425033184+426604346+428438415+430551520+432943121
1058.88+435615205+438584103+441872312+445489342+449416999+453606240+457983585
1065.63+462461496+466954458+471401273+475784821+480125736+484460780+488815548
1072.38+493197360+497603609+502023422+506432938+510788533+515041951+519159986
1079.14+523130606+526944176+530568318+533952461+537052193+539855358+542380729
1085.89+544652786+546680170+548453743+549967593+551232718+552271655+553096478
1092.64+553699082+554055318+554145422+553964884+553516891+552802102+551810884
1099.39+550532775+548961944+547104346+544977017+542605512+540014558+537211600
1106.14+534170958+530831309+527115698+522963632+518356624+513331189+507974369
1112.89+502403849+496737022+491057170+485387450+479686964+473868422+467835187
1119.64+461522628+454931572+448132811+441240970+434363642+427563476+420848740
1126.39+414199048+407600342+401067921+394646486+388395911+382375826+376635354
1133.14+371206708+366104732+361329179+356865452+352687334+348759885+345048741
1139.89+341532462+338206334+335074782+332136442+329372332+326748691+324228696
1146.64+321788652+319424508+317144595+314958940+312864485+310845061+308878483
1153.39+306947818+305048559+303183435+301354761+299557763+297778813+295997879
1160.14+294195278+292359306+290493313+288612952+286736869+284875901+283030522
1166.89+281197052+279373589+277562303+275767827+273989353+272217103+270436479
1173.64+268638839+266831854+265039032+263281399+261564889+259879868+258217301
1180.39+256583162+254994736+253469039+252012895+250626178+249305456+248044487
1187.15+246831588+245650363+244483322+243320333+242160631+241015051+239899554
1193.90+238828094+237804313+236820662+235867590+234941809+234043093+233170841
1200.65+232318127+231477508+230642699+229804975+228948374+228054455+227111162
1207.40+226114362+225061407+223945268+222761191+221514653+220225358+218917518
1214.15+217610318+216311595+215018662+213718781+212395703+211045230+209681670
1220.90+208327247+206990110+205655826+204300990+202914087+201503035+200087290
1227.65+198688375+197327026+196017925+194761587+193546289+192359089+191196286
1234.40+190052195+188893114+187643846+186204800+184482439+182410169+179959250
1241.15+177144445+174033589+170740035+167391899+164100444+160939130+157945999
1247.90+155128175+152467980+149938020+147517597+145203228+142999814+140906992
1254.65+138921713+137045042+135280813+133619652+132038204+130518700+129068582
1261.40+127716847+126487087+125386672+124420337+123601055+122937128+122414455
1268.15+122000421+121666855+121401156+121200016+121057283+120970561+120948872
1274.90+121004468+121140998+121355484+121652713+122046599+122543666+123128458
1281.65+123777602+124479355+125230687+126012071+126779282+127486937+128121743
1288.40+128703486+129266166+129846389+130493476+131270683+132240275+133447922
1295.16+134932475+136741889+138920576+141477415+144367354+147504199+150777356
1301.91+154050038+157164347+159983328+162444068+164565929+166403017+167992414
1308.66+169348956+170487041+171424462+172162717+172687282+173001020+173144404
1315.41+173169193+173101275+172953012+172770934+172648650+172678247+172901272
1322.16+173320144+173934016+174736344+175689189+176725996+177796483+178893828
1328.91+180030890+181204072+182398632+183626666+184929317+186336998+187845224
1335.66+189446531+191177182+193114339+195309339+197721802+200254885+202858491
1342.41+205558548+208415531+211491115+214843417+218516064+222513541+226803058
1349.16+231347212+236131201+241156471+246424531+251937388+257695972+263656636
1355.91+269678293+275549392+281111146+286370771+291517198+296840276+302578681
1362.66+308734520+315063889+321394311+327957104+335395747+344495365+355756261
1369.41+369068834+383909317+399899598+416901566+434212878+449601712+459877324
1376.16+463175912+460161321+453015876+444203831+435985004+430124987+427541477
1382.91+428241917+431748540+437663182+445921044+456494174+468767067+481480055
1389.66+493607641+505044629+516446428+528765716+542809701+558700410+575577457
1396.41+592242457+608230836+623830725+639194377+653992392+668036791+681913058
1403.17+696881066+714128698+733796836+754729479+775658069+796503461+818242195
1409.92+841884384+867669368+894908160+922409778+949109109+974496050+998688618
1416.67+1022043337+1044047625+1062048502+1072377167+1073741823+1067220401
1422.45+1053709964+1033821345+1009442699+983782925+959255499+935912772
1428.24+912232043+887203612+861915912+839029035+820406326+805735670+793181097
1434.99+780557467+766550077+752124797+739957845+731406268+725572509+720934199
1441.74+716546971+712193650+707987786+703876863+699454818+694217088+688024528
1448.49+681298958+674670563+668509430+662894623+657811090+653167694+648566682
1455.24+642918670+634341457+622122816+610014623+602207401+598296616+596247770
1461.99+594723169+593047390+591002969+588936757+587635078+587624905+588811464
1468.74+590917125+593987044+598614106+605916560+616899890+631127141+646724011
1475.49+662259145+677213177+691149981+703404059+713156626+719500818+721628395
1482.24+719258420+712869652+703344349+691361738+677046492+659871513+638939243
1488.99+614538309+590233722+570781187+557532252+548624977+541546520+534196719
1495.75+525050644+513625854+501108661+489556429+480054903+472472132+466374266
1502.50+461412759+457166330+452756648+446140078+433701204+414515712+396336614
1509.25+384652472+377039475+370663442+364483123+358303093+351971388+345104213
1516.00+337345081+328963787+320909329+313762085+306840327+298751196+289154212
1522.75+279655228+271747007+264978619+258014145+250314021+242600872+235910140
1529.50+230490922+225735713+220669899+214474052+207221116+200237910+194903874
1536.25+191397334+188973872+186497749+182474862+175635267+167262895+160575409
1543.00+156014063+152384256+149275602+146726041+144578884+142478877+140134292
1549.75+137523128+134874791+132431005+130253838+128297432+126561208+125070184
1556.50+123650407+121662410+118288098+114279436+111547663+110153244+109273290
1563.25+108445770+107532890+106541290+105516795+104462610+103295786+101924007
1570.00+100446970+99181617+98342053+97857743+97472540+96873916+95856503
1576.75+94580885+93460146+92647904+92018639+91448134+90894623+90348101+89789918
1584.47+89209251+88620665+88044411+87474940+86890974+86296424+85727846+85212347
1592.18+84734519+84261198+83785443+83328502+82899974+82486446+82076443+81680262
1599.90+81306576+80939454+80559466+80182979+79858339+79614975+79434344+79280747
1607.61+79145577+79045705+78989101+78966549+78977057+79037956+79157005+79310204
1615.33+79455599+79581904+79737461+79958894+80218375+80473762+80713539+80942989
1623.04+81155733+81344076+81523688+81724849+81947496+82154648+82317306+82453831
1630.76+82607759+82799409+83016097+83236057+83455671+83682795+83891094+84036043
1638.47+84129935+84220752+84341005+84499952+84700916+84956335+85290216+85717896
1646.19+86212699+86683316+87055747+87347807+87601773+87834081+88059794+88307888
1653.90+88550999+88690940+88701071+88620665+88478253+88267075+87940332+87407972
1661.62+86569778+85413813+84096969+82836955+81716010+80638731+79373580+77623323
1669.33+75258165+72654455+70423832+68725682+67272654+65762428+64139386+62593205
1677.05+61321903+60342744+59551912+58849394+58166058+57406714+56381873+54926726
1684.76+53275483+51939870+51032744+50317723+49583743+48780412+47990102+47317749
1692.48+46786377+46324216+45802985+45101795+44191010+43166248+42124058+41074964
1700.19+40072230+39269649+38744559+38405677+38092097+37681430+37160959+36631605
1707.91+36207887+35923446+35747764+35643139+35588980+35574404+35575810+35534527
1715.62+35343887+34904577+34290700+33751375+33419432+33242198+33115933+32958454
1723.34+32727847+32436107+32139640+31898051+31740658+31667870+31670082+31740510
1731.05+31869876+32040419+32214377+32346229+32424077+32483704+32558092+32656103
1738.77+32771986+32890241+32986211+33030288+33000462+32885295+32682749+32394413
1746.48+32017403+31535282+30914494+30129107+29221761+28321496+27552494+26947564
1754.20+26461740+26023598+25576080+25112003+24664896+24258191+23866939+23446438
1761.91+22997240+22585095+22276704+22077905+21953098+21864951+21790269+21711057
1769.63+21608738+21463652+21273763+21070087+20898971+20785760+20726856+20708294
1777.34+20715529+20734748+20757111+20785687+20834141+20917463+21050278+21249635
1785.06+21537144+21926251+22419180+23020670+23754692+24658151+25732525+26863165
1792.77+27821884+28443140+28747745+28841916+28792623+28602384+28224498+27591669
1800.49+26673820+25542108+24359415+23281650+22377101+21638577+21034122+20537814
1808.20+20132426+19798006+19510329+19248558+19003847+18777572+18580008+18429304
1815.92+18345571+18334485+18375037+18430835+18476352+18510051+18540252+18571254
1823.63+18604374+18648145+18713440+18793113+18854184+18856665+18782461+18656389
1831.35+18528945+18436452+18387364+18374381+18381310+18386780+18374673+18348489
1839.06+18325733+18318658+18319023+18306698+18261625+18177540+18067500+17955430
1846.78+17856711+17772654+17695454+17618406+17545516+17492383+17474381+17493987
1854.49+17539758+17600912+17674461+17756689+17831924+17878583+17885802+17863346
1862.21+17828643+17796857+17778705+17786141+17820915+17856419+17831997+17698516
1869.92+17478025+17243584+17047072+16902752+16811622+16774911+16785618+16817959
1877.64+16836826+16816867+16753204+16654366+16533541+16406321+16290837+16201938
1885.35+16144131+16112900+16100815+16094190+16073442+16018264+15932077+15845170
1893.07+15789855+15774134+15777336+15765620+15716057+15625454+15508953+15393192
1900.78+15310324+15277295+15283698+15297738+15296210+15280933+15266456+15251252
1908.50+15216478+15152973+15079286+15028225+15011715+15017025+15024952+15026407
1916.21+15021679+15017097+15023788+15056738+15116893+15179669+15201202+15149626
1923.93+15031643+14888000+14763209+14681621+14650209+14664824+14709252+14762190
1931.64+14810404+14859346+14921237+14995132+15062629+15105254+15119002+15112237
1939.36+15089616+15048592+14989167+14926037+14886182+14888218+14923564+14959056
1947.07+14955710+14893019+14788006+14687511+14634866+14627813+14616398+14545580
1954.79+14402141+14229498+14097505+14058477+14131520+14300660+14515990+14703944
1962.50+14796514+14765608+14636320+14472659+14345148+14308437+14378951+14531040
1970.22+14710271+14861529+14957238+15010624+15067357+15184252+15397120+15697864
1977.93+16022922+16280206+16397000+16367000+16246569+16108677+15995115+15906310
1985.65+15832797+15784397+15789783+15864967+15993731+16127315+16211402+16211767
1993.36+16125640+15976406+15791310+15590015+15381478+15172395+14972075+14791206
2001.08+14632104+14484000+14338315+14209145+14140459+14179344+14327337+14517152
2008.79+14649772+14666642+14598293+14536856+14561939+14680312+14826621+14920655
2016.51+14925964+14871201+14822113+14830984+14912291+15045536+15188689+15288572
2024.22+15296210+15193564+15012369+14834838+14755791+14836947+15078560+15427169
2031.94+15810161+16163716+16437998+16590856+16592168+16450013+16223562+16003995
2039.65+15871445+15858198+15941686+16070895+16202083+16324113+16464141+16663834
2047.37+16935169+17214072+17369945+17280966+16919434+16379598+15821806+15387007
2055.08+15134786+15049901+15083360+15190654+15339862+15499348+15634696+15719114
2062.80+15749608+15746188+15738109+15740729+15747861+15741238+15709144+15654854
2070.51+15594527+15544171+15514192+15511354+15538133+15589652+15650706+15698810
2078.23+15715912+15696917+15649468+15582957+15501240+15404032+15297447+15199455
2085.94+15130641+15093907+15063284+14996441+14866691+14687511+14508064+14383458
2093.66+14344202+14391382+14507920+14672604+14858910+15037536+15176105+15251833
2101.37+15259181+15210077+15125985+15033826+14955420+14907855+14900364+14936146
2109.09+15010115+15101616+15178796+15210731+15189199+15131004+15061757+14993895
2116.80+14917528+14815131+14674641+14499559+14302767+14104700+13926069+13781685
2124.52+13670303+13569101+13447133+13281163+13069394+12837479+12631232+12505220
2132.23+12498907+12614173+12808002+13010067+13157626+13220664+13206429+13144409
2139.95+13071427+13015731+12992278+13005856+13056759+13149130+13278330+13415971
2147.66+13508951+13506917+13388296+13170553+12886704+12566991+12246201+11995144
2155.38+11934637+12205927+12887866+13910881+15041609+16001084+16623630+16931600
2163.09+17057856+17111261+17100550+16968535+16675268+16248025+15761763+15294683
2170.81+14905092+14634939+14514317+14547979+14696454+14887128+15047572+15141843
2178.52+15184324+15226226+15318109+15474755+15660676+15815183+15894445+15896702
2186.24+15849027+15781776+15716858+15672174+15664168+15694953+15742693+15774643
2193.95+15774571+15754702+15740146+15745023+15764965+15787162+15803683+15813946
2201.67+15823626+15839493+15869698+15915918+15970730+16021321+16057354+16074899
2209.38+16072787+16052987+16020520+15984487+15951075+15921086+15890442+15859071
2217.10+15828647+15797205+15755649+15697572+15632586+15582229+15568330+15603186
2224.81+15686511+15809724+15951294+16083052+16183446+16253558+16314720+16388408
2232.53+16472806+16546796+16587142+16586195+16549125+16485987+16406613+16323238
2240.24+16249481+16196477+16169540+16172161+16209509+16286687+16400641+16531648
2247.96+16644533+16700178+16675924+16581097+16460135+16371223+16354622+16412147
2255.67+16514097+16622100+16710447+16767845+16793339+16791809+16772361+16751310
2263.39+16745483+16766169+16813661+16873249+16917904+16923368+16884394+16826846
2271.10+16794286+16821747+16913315+17044377+17179825+17293791+17377960+17437285
2278.82+17480284+17515050+17547047+17580941+17623800+17678470+17742035+17800429
2286.53+17834985+17830976+17786942+17715283+17636993+17573359+17539613+17536042
2294.25+17547484+17553242+17543694+17529701+17533345+17566508+17618114+17663746
2301.96+17687728+17697131+17715063+17763104+17846796+17956378+18073772+18184031
2309.68+18279858+18363878+18445934+18537188+18646540+18778885+18936784+19119300
2317.39+19323302+19548877+19804214+20100726+20431504+20744103+20950062+20970821
2325.11+20792629+20479361+20141192+19878553+19740319+19711623+19735719+19752732
2332.82+19732141+19676648+19607357+19548147+19517410+19525880+19575159+19654159
2340.54+19741415+19803190+19801512+19696874+19472513+19163673+18854403+18631365
2348.25+18546744+18610721+18802307+19084050+19406884+19724766+20006359+20237541
2355.97+20409148+20511436+20549871+20559150+20588232+20672852+20808708+20960442
2363.68+21065190+21064385+20925795+20657871+20298394+19892065+19472805+19062740
2371.40+18679224+18333464+18029729+17765218+17531523+17320172+17125397+16944858
2379.11+16781975+16642420+16527933+16433847+16350762+16271033+16192983+16119088
2386.83+16053059+15995552+15946854+15909585+15889861+15895756+15930913+15990820
2394.54+16063178+16133285+16190289+16232444+16265718+16296807+16330155+16369694
2402.26+16419720+16482491+16555316+16629821+16696682+16752767+16798438+16835077
2409.97+16862176+16879003+16887162+16892117+16900639+16920746+16960084+17021062
2417.69+17097345+17173559+17234256+17274699+17300131+17317547+17326439+17319297
2425.40+17294520+17263768+17250724+17277177+17345968+17436264+17513009+17550181
2433.12+17546245+17525691+17520443+17547338+17602516+17668703+17733215+17794379
2440.83+17857659+17926120+17996699+18063271+18121899+18175571+18233913+18305093
2448.55+18389990+18479270+18558999+18617213+18648656+18652012+18630563+18593796
2456.26+18558707+18543461+18557540+18593067+18631877+18657994+18668354+18673606
2463.98+18689875+18730002+18795958+18877096+18958385+19028878+19088501+19142654
2471.69+19192138+19232646+19260456+19281477+19311039+19360457+19430098+19512227
2479.41+19600568+19695850+19804140+19928579+20064571+20200943+20327104+20441587
2487.12+20553889+20680087+20830634+21003567+21187492+21372908+21563470+21772569
2494.84+22010527+22273703+22546670+22813333+23069947+23324639+23589716+23869794
2502.55+24158443+24445546+24727072+25006756+25287607+25562651+25813250+26020295
2510.27+26176650+26289563+26372895+26436555+26483108+26512772+26524963+26519750
2517.98+26498527+26464017+26421356+26375979+26330384+26281559+26229142+26176945
2525.70+26130916+26090617+26047382+25988295+25908511+25815010+25720123+25629864
2533.41+25539614+25439904+25326559+25205376+25088826+24987688+24906286+24842487
2541.13+24792404+24750901+24714388+24683153+24660862+24651992+24657489+24673107
2548.84+24692537+24712408+24732572+24753322+24772165+24784557+24789985+24791745
2556.56+24796510+24806336+24820269+24835520+24851507+24870644+24895284+24924912
2564.27+24957106+24989595+25024505+25064771+25113471+25169507+25228336+25282177
2571.99+25322964+25342846+25337711+25312474+25280857+25260246+25260171+25274623
2579.70+25289587+25296190+25299857+25315702+25352822+25405131+25454946+25489869
2587.42+25510557+25527728+25550474+25578574+25605651+25628324+25649090+25673231
2595.13+25703538+25738689+25776701+25821763+25879667+25952550+26031599+26098471
2602.85+26134733+26132384+26102436+26068156+26055162+26079238+26140900+26225692
2610.56+26311955+26379209+26415334+26422824+26417389+26421281+26453002+26520042
2618.28+26619033+26738891+26864855+26979813+27067086+27117632+27135485+27137909
2625.99+27145771+27171486+27212997+27255687+27284710+27293895+27290881+27290295
2633.71+27303814+27333281+27370463+27407278+27442184+27479371+27521481+27565504
2641.42+27604824+27635695+27662229+27692805+27734114+27784761+27838277+27887898
2649.14+27931052+27970385+28008983+28046408+28076480+28091186+28085376+28060671
2656.85+28024130+27985752+27953108+27928701+27913776+27909659+27918187+27942375
2664.57+27983030+28037070+28098171+28157949+28210307+28253839+28292153+28329880
2672.28+28373859+28429313+28498376+28578992+28665278+28750761+28831542+28906074
2680.00+28972736+29030718+29080021+29126530+29177456+29236112+29299335+29361234
2687.71+29419531+29478197+29543715+29617112+29693167+29762302+29818777+29863252
2695.43+29901838+29943150+29995068+30065326+30158127+30271263+30394725+30514221
2703.14+30617960+30705497+30786040+30873073+30974413+31092196+31226505+31378376
2710.86+31551357+31749876+31978897+32246767+32560896+32927522+33347205+33819046
2718.57+34344727+34927353+35564046+36233723+36894068+37485709+37949905+38243947
2726.29+38352358+38283840+38064888+37732348+37330771+36907918+36509279+36164954
2734.00+35886072+35669480+35508708+35405877+35364231+35380725+35441089+35526019
2741.72+35617613+35705070+35784763+35856470+35922631+35989387+36064066+36155924
2749.43+36272882+36419024+36595987+36798230+37013396+37225042+37418351+37586049
2757.15+37733165+37874739+38025522+38191822+38369785+38554599+38747676+38959183
2764.86+39196107+39450520+39699642+39918667+40094288+40231981+40349334+40468039
2772.58+40606073+40776293+40982956+41224365+41494449+41786752+42098992+42430058
2780.29+42776552+43130142+43476087+43800757+44095707+44365241+44624851+44897631
2788.01+45207023+45567518+45979614+46428580+46892948+47354505+47809218+48267839
2795.72+48748546+49268810+49834814+50442209+51077863+51726222+52374704+53017460
2803.44+53653796+54284156+54904396+55510138+56105273+56712446+57369499+58114649
2811.15+58968427+59924275+60955608+62034640+63147264+64299026+65511196+66810994
2818.87+68224088+69768764+71459316+73309414+75336540+77561116+79998885+82657069
2826.58+85533880+88627312+91937075+95464560+99206572+103152103+107287567
2833.33+111598100+116067410+120675161+125398623+130219910+135128612+140115405
2840.08+145163273+150244098+155328530+160397497+165442543+170449557+175379327
2846.83+180150249+184630206+188642673+191986685+194473041+195964520+196402218
2853.58+195808421+194269534+191914238+188896897+185387751+181561962+177584954
2860.34+173597628+169709865+166004179+162547890+159404491+156633652+154278046
2867.09+152348642+150818469+149636573+148749176+148119425+147732269+147587821
2873.84+147686556+148017806+148554311+149255598+150081124+151002790+152015542
2880.59+153133541+154375458+155752209+157257810+158873796+160578613+162358090
2887.34+164210664+166143510+168161549+170256356+172405787+174585125+176782295
2894.09+179011078+181304265+183699712+186219294+188861191+191604480+194425591
2900.84+197315097+200282445+203349221+206532440+209825467+213188913+216553084
2907.59+219832878+222944416+225820875+228419933+230721059+232722723+234436566
2914.34+235885846+237103356+238130218+239013594+239800146+240526182+241208159
2921.09+241841094+242401458+242848893+243125633+243157370+242867088+242199708
2927.84+241142970+239726542+237997276+235992696+233730233+231220141+228489402
2934.59+225595989+222624837+219667868+216801312+214072206+211498558+209085744
2941.34+206841723+204793932+202985996+201471712+200299750+199502694+199090883
2948.09+199053357+199366568+200010791+200981996+202288513+203936628+205906266
2954.84+208131121+210488567+212798459+214825389+216293815+216919037+216452064
2961.59+214726581+211686849+207382694+201948879+195577994+188506857+181002797
2968.35+173340055+165766350+158475557+151601642+145232318+139421116+134191129
2975.10+129528081+125379891+121675921+118353236+115373782+112719666+110370966
2981.85+108285443+106397855+104636841+102944987+101289646+99661068+98066409
2988.60+96527315+95087121+93814015+92788941+92085317+91744432+91771258+92152161
2996.31+92876387+93939421+95322044+96959554+98734554+100500374+102115306
3003.06+103462491+104449523+104996913+105040569+104542830+103502023+101954100
3009.81+99963766+97617805+95016928+92266071+89460901+86679305+83980204+81412242
3017.53+79020930+76847562+74920324+73248577+71822871+70624367+69637243+68851776
3025.24+68253963+67814881+67489456+67230802+67006604+66803174+66617473+66447656
3032.96+66292213+66151662+66022968+65887074+65705762+65436796+65058023+64580619
3040.67+64037493+63462356+62873724+62278490+61682037+61093213+60519477+59961346
3048.39+59418334+58894653+58402491+57956203+57561542+57216196+56915607+56661926
3056.10+56463623+56325946+56241720+56190765+56149373+56099401+56030319+55936784
3063.82+55814743+55666454+55503522+55347826+55224415+55149063+55120940+55122222
3071.53+55124775+55102440+55042363+54949133+54840194+54731866+54631368+54535765
3079.25+54441894+54352163+54273338+54210293+54159954+54117125+54081739+54059725
3086.96+54059725+54086846+54137563+54203155+54272811+54336610+54387409+54420324
3094.68+54434756+54431220+54413408+54386809+54359079+54337437+54324809+54317971
3102.39+54308879+54288813+54253123+54203533+54147854+54098042+54066114+54058676
3110.11+54072497+54098941+54126817+54148908+54161980+54165061+54159727+54151911
3117.82+54150785+54165588+54200602+54253650+54321656+54400708+54485632+54565072
3125.54+54622121+54645272+54637534+54616337+54603255+54610925+54638356+54674889
3133.25+54709164+54735401+54752918+54764491+54776447+54796967+54835832+54897708
3140.97+54977401+55060335+55128383+55169444+55183353+55178619+55168917+55165909
3148.68+55178469+55210200+55260137+55321351+55384080+55441015+55487121+55520217
3156.40+55539853+55548728+55557753+55583634+55639224+55724536+55823168+55911881
3164.11+55975762+56018281+56057337+56113326+56194833+56296892+56404006+56501563
3171.83+56583928+56655827+56725322+56797158+56869972+56935114+56982637+57010424
3179.54+57025564+57043562+57079563+57137862+57212056+57286932+57349082+57394583
3187.26+57430372+57468043+57513172+57562746+57607353+57639079+57659197+57677510
3194.97+57702527+57736440+57772989+57805692+57835387+57869527+57914827+57970903
3202.69+58027435+58072657+58100021+58114949+58133117+58173749+58250946+58363963
3210.40+58494481+58610160+58681733+58700284+58682182+58660613+58663859+58697947
3218.12+58750587+58804518+58852490+58897521+58943235+58986984+59021160+59044544
3225.83+59064160+59090412+59128512+59173708+59216863+59251272+59275493+59294431
3233.55+59315934+59347856+59396449+59465349+59554103+59656374+59760686+59853689
3241.26+59922843+59965574+59990565+60014725+60056928+60126925+60220858+60327264
3248.98+60429374+60515099+60576733+60612160+60627873+60637544+60659827+60710595
3256.69+60792413+60893427+60992183+61073034+61132357+61178153+61222744+61276180
3264.41+61342088+61418054+61494775+61561908+61616946+61667595+61728081+61806343
3272.12+61898441+61992064+62077898+62152324+62214722+62262679+62295356+62318280
3279.84+62342408+62374636+62411702+62441510+62454975+62454143+62449605+62454525
3287.55+62478354+62525261+62591391+62667358+62739091+62796682+62837624+62867516
3295.27+62893396+62920264+62946527+62967719+62979752+62982481+62983313+62993909
3302.98+63025093+63078456+63146432+63214107+63267553+63297155+63301243+63284129
3310.70+63257329+63237041+63237119+63265434+63322286+63400950+63490449+63576846
3318.41+63647271+63694453+63722173+63744513+63777836+63831535+63904023+63984693
3326.13+64063854+64136052+64202875+64267279+64331300+64395332+64460500+64528176
3333.84+64598431+64668081+64729931+64777304+64808456+64828393+64847269+64875088
3341.56+64924972+65006847+65125885+65277007+65440662+65591065+65706744+65781165
3349.27+65824180+65858248+65908396+65992007+66115920+66274835+66452969+66630374
3356.99+66786168+66906592+66988683+67042145+67087558+67144668+67223509+67323014
3364.70+67436046+67559731+67696871+67849915+68014755+68178633+68330292+68463265
3372.42+68580360+68691077+68808197+68943885+69104310+69286289+69478193+69665935
3380.13+69838864+69994084+70134548+70265970+70396416+70535556+70692694+70871712
3387.85+71069430+71274876+71473877+71654610+71814793+71964084+72119651+72297893
3395.56+72503473+72730297+72967315+73205753+73442863+73680175+73919901+74163110
3403.28+74408739+74653881+74894945+75129792+75357949+75583404+75810807+76045984
3410.99+76291612+76547243+76808822+77072143+77336287+77606772+77890960+78191921
3418.71+78506145+78822519+79132231+79435265+79743446+80067977+80408950+80752249
3426.42+81081974+81394953+81709166+82050532+82433522+82848187+83267613+83666322
3434.14+84031112+84361194+84655911+84914095+85134479+85322754+85484140+85619481
3441.85+85720284+85776438+85779984+85724993+85601514+85399397+85115979+84766576
3449.57+84373827+83954862+83510254+83028332+82495600+81907515+81276069+80621141
3457.28+79957896+79282742+78573076+77801611+76958279+76058379+75136061+74225679
3465.00+73349111+72512855+71717582+70961919+70239397+69537929+68846984+68164873
3472.71+67505180+66889964+66335476+65841097+65389320+64957495+64526734+64086054
3480.43+63636598+63194574+62786008+62432584+62136740+61884604+61661625+61463328
3488.14+61297718+61172788+61092908+61059812+61078854+61159188+61305430+61514510
3495.86+61778064+62091363+62455203+62872054+63341819+63857669+64407003+64970608
3503.57+65525834+66055139+66551503+67016626+67449646+67839505+68160542+68380926
3511.29+68476570+68444182+68294942+68039152+67671115+67172694+66530703+65758256
3519.00+64890403+63956818+62956973+61866151+60672971+59407241+58127990+56880066
3526.72+55672021+54498110+53375195+52347847+51456387+50706497+50065427+49476634
3534.43+48883567+48249520+47577468+46911990+46313392+45820967+45438840+45144376
3542.15+44901436+44666967+44400720+44083193+43733717+43399531+43115250+42872643
3549.86+42632612+42354909+42027729+41681750+41371852+41136954+40977529+40868733
3557.58+40786251+40715366+40645524+40564541+40459645+40327051+40171079+39989655
3565.29+39762524+39462620+39106541+38774456+38524783+38343088+38172764+37962509
3573.01+37686544+37350627+36987100+36638712+36335216+36079387+35854178+35638774
3580.72+35425038+35220806+35041308+34895113+34767789+34609945+34337705+33887533
3588.44+33311093+32746299+32282037+31917378+31613298+31331560+31051582+30762827
3596.15+30453146+30101856+29689042+29209839+28685876+28163906+27698760+27325272
3603.87+27042183+26819240+26610148+26369223+26078871+25765035+25473435+25218507
3611.58+24974928+24712773+24434769+24176030+23964684+23792789+23620261+23406594
3619.30+23142438+22862747+22613348+22415373+22273044+22190580+22169068+22193214
3627.01+22207116+22107755+21819672+21429576+21107442+20913005+20807758+20750972
3634.73+20729194+20745930+20802277+20889616+21006199+21178354+21468111+21957781
3642.44+22726659+23849938+25421930+27562711+30332550+33414558+35491173+34475111
3650.16+30334098+25765474+22515786+20561269+19379510+18553017+17862763+17260344
3657.87+16780956+16436686+16188833+15990747+15818677+15672756+15566511+15516520
3665.59+15532384+15605515+15696117+15729885+15632513+15422077+15235902+15195963
3673.30+15326257+15584849+15859582+15966507+15798006+15422221+14955347+14474839
3681.02+14028825+13653592+13371809+13191469+13110714+13124511+13221536+13367595
3688.73+13484179+13480548+13349364+13186749+13064601+12987920+12926420+12852362
3696.45+12753261+12623319+12449334+12200993+11838949+11354172+10805950+10303837
3704.16+9926502+9685849+9556236+9511563+9522640+9538135+9463851+9204904+8790141
3712.84+8393170+8144506+8042683+8031546+8064378+8118616+8189707+8275341+8366551
3721.52+8444747+8495457+8516075+8513543+8489380+8441925+8377474+8313965+8266590
3730.20+8242504+8239033+8253715+8288433+8344634+8400114+8411399+8357581+8261599
3738.88+8156077+8059315+7975649+7903702+7842388+7794959+7771534+7777173+7805949
3747.56+7837833+7853234+7836098+7780933+7705744+7635549+7573814+7509481+7434165
3756.24+7340641+7227829+7112426+7035907+7038219+7120086+7239464+7346279+7409229
3764.92+7422745+7401929+7364997+7314262+7236357+7126156+7009245+6921967+6880281
3773.60+6873274+6883677+6900365+6921895+6947182+6969218+6976732+6968929+6960765
3782.28+6970013+7000141+7037641+7058956+7049924+7013074+6965316+6921100+6890468
3790.96+6875946+6877608+6895597+6928036+6975793+7041470+7123337+7210341+7279211
3799.64+7301976+7256735+7157010+7058884+7006861+6990098+6969579+6918572+6846543
3808.32+6796264+6801104+6860053+6954407+7063147+7170307+7259120+7313178+7324308
3816.99+7310215+7301976+7315707+7337389+7335438+7293375+7230286+7172691+7125939
3825.67+7082078+7034751+6984029+6935478+6896320+6875296+6883316+6932082+7024924
3834.35+7153036+7293881+7415879+7482231+7466112+7377139+7254351+7126806+7003104
3843.03+6887000+6795180+6750609+6768163+6847121+6976009+7137356+7307324+7447681
3851.71+7493073+7356179+7034028+6706834+6529656+6492534+6539334+6634963+6759277
3860.39+6896248+7028681+7138151+7212148+7251315+7274297+7301615+7342303+7391377
3869.07+7436189+7464956+7468642+7442332+7380392+7283909+7176522+7094434+7062280
3877.75+7079333+7128685+7189168+7249870+7310143+7366081+7398026+7381765+7316575
3886.43+7240982+7203331+7219230+7265263+7296700+7269527+7174064+7052525+6966472
3895.11+6946604+6995084+7101588+7251460+7419059+7564634+7643067+7622392+7499434
3903.79+7309203+7112571+6967556+6892057+6873129+6886856+6914454+6944147+6973770
3912.47+7007367+7050068+7098914+7140897+7158456+7142053+7104695+7076875+7083234
3921.15+7127529+7193287+7250015+7266203+7229202+7159468+7102166+7096891+7157444
3929.83+7263312+7363841+7404893+7367816+7283258+7199863+7145449+7121531+7117629
3938.51+7125289+7140969+7160624+7173776+7166983+7135549+7090243+7047901+7017193
3947.19+6995806+6979116+6968640+6971169+6988654+7013292+7031644+7035690+7027814
3955.86+7019360+7020806+7036268+7058812+7074635+7068855+7034101+6976154+6912358
3964.54+6861715+6834840+6829855+6840186+6861209+6894658+6942486+6999563+7048913
3973.22+7070589+7055560+7015531+6977094+6967267+6995156+7048046+7096891+7116906
3981.90+7097180+7045805+6979405+6912503+6854418+6810567+6785500+6783477+6803704
3990.58+6837152+6869589+6885411+6874502+6835924+6781238+6732261+6709073+6722365
##END=
