##TITLE=Default
##JCAMP-DX=4.24
##DATA TYPE=INFRARED SPECTRUM
##DATE=19/9/2016
##SAMPLING PROCEDURE=ATR
##ORIGIN=Default
##XUNITS=1/CM
##YUNITS=ABSORBANCE
##RESOLUTION=4
##FIRSTX=599.84104
##LASTX=3998.2974
##DELTAX=0.96437467
##MAXY=2
##MINY=0
##XFACTOR=1
##YFACTOR=1.8626452e-009
##NPOINTS=3525
##FIRSTY=0.047651298
##XYDATA=(X++(Y..Y))
599.84+25582596+27330316+28159216+27545566+25723940+23395136+21170570+19150090
607.56+17013440+14382853+11188888+7733480+4553987+2255592+1354094+2107934
615.27+4359138+7533010+10846226+13656420+15796534+17676284+20078918+23787530
622.99+29147630+35936384+43530944+51318856+58949520+66269820+73114928+79265440
630.70+84538816+88930360+92588048+95689400+98380464+100824664+103318024
637.45+106277960+110093776+114941384+120711392+127080688+133705776+140382640
644.20+147137744+154159728+161643584+169610640+177814608+185810912+193211552
650.95+199937840+206253744+212559376+219111408+225888880+232623056+238955248
657.70+244580064+249364160+253387760+256898048+260247488+263899904+268532160
664.45+275120576+284932448+298982144+316186720+331288992+338515520+338632256
671.20+336695072+336282240+338499968+343016256+348866080+354973120+360510528
677.96+365009344+368335040+370630528+372250080+373597440+374946688+376317120
684.71+377472064+377995840+377467008+375644128+372600128+368700800+364419552
691.46+360149376+356121824+352427168+349065920+345993248+343174336+340626560
698.21+338436192+336694272+335418080+334523936+333882496+333408000+333126144
704.96+333176544+333786496+335218464+337709536+341428288+346453952+352812512
711.71+360543616+369772736+380712064+393601344+408586784+425552512+443935840
718.46+462562816+479697568+493395712+502100928+505042528+502173888+493826048
725.21+480458912+462629280+441016768+416355744+389309472+360415584+330131936
731.96+298901920+267203424+235555232+204538432+174774080+146868880+121341744
738.71+98595248+78924624+62508436+49344336+39210840+31695882+26302408+22554650
746.43+20059748+18515846+17689988+17391900+17430084+17598220+17683558+17515000
754.14+17024410+16276306+15438668+14697685+14159711+13812161+13565308+13349865
761.86+13172722+13075759+13045195+12970443+12704536+12170489+11438628+10695220
769.57+10151511+9932834+10033185+10325459+10644563+10872016+10980181+11007472
777.29+11000967+10991305+11010397+11124528+11414108+11928177+12661847+13591175
785.00+14723975+16104129+17757926+19641410+21623204+23498912+25012020+25876334
792.72+25832106+24727020+22604844+19720166+16467499+13265027+10438166+8168870
800.43+6496095+5357637+4655031+4305941+4247932+4405098+4630280+4704956+4430695
809.11+3764195+2886910+2107934+1215906+698180+410486+203203+46114+0+91189
818.75+243851+364179+465261+705840+1278957+2258748+3544787+4949191+6331193
827.43+7666849+9023599+10471962+12019790+13616657+15206365+16787990+18415458
835.15+20139352+21960938+23829372+25705388+27607154+29611774+31790304+34147900
842.86+36608428+39011792+41113608+42592648+43107220+42419316+40515508+37649464
850.58+34248136+30751158+27491792+24646146+22270034+20339474+18789184+17548988
858.29+16591138+15956817+15756425+16123260+17175380+19015750+21791648+25751040
866.01+31237512+38546688+47652352+57907680+67936704+75891904+80078440+79639352
873.72+74908224+67186600+58116848+49034700+40668172+33219614+26638218+20850502
881.44+15841494+11639791+8258519+5665732+3776937+2485662+1700528+1384503
889.15+1528697+2107934+2564418+3259364+4107126+5091845+6263253+7672623+9332580
897.83+11207172+13243971+15402947+17647876+19897078+21971254+23583018+24404720
905.55+24186814+22874908+20662736+17929104+15127840+12661539+10804924+9695412
913.26+9342319+9669737+10553259+11869746+13538248+15536670+17881488+20578744
920.98+23588946+26817208+30164414+33597612+37205028+41195752+45818680+51252108
928.69+57499388+64343880+71342648+77849024+83083680+86259168+86766768+84379608
936.41+79369832+72442040+64539308+56584264+49281360+43033080+37960676+33986696
944.12+30929108+28584444+26795038+25483246+24627478+24220380+24210372+24495332
951.84+24950238+25488596+26085926+26789322+27674574+28809050+30225886+31907110
959.55+33797600+35825892+37934768+40086356+42252048+44390700+46450304+48372244
967.27+50105200+51588668+52744892+53472904+53678548+53312448+52404156+51051060
974.98+49404212+47644828+45954480+44490952+43354168+42586932+42191324+42160224
982.70+42494668+43186840+44205952+45475596+46888872+48351052+49802860+51241600
990.41+52711076+54282036+56025464+57984356+60167448+62549104+65096236+67803288
998.13+70714416+73916136+77506344+81563760+86144072+91303528+97120000+103687328
1005.84+111053472+119171784+127900256+137089008+146703664+156865168+167741920
1012.59+179308816+191099920+202138208+211119040+216806768+218453648+216041984
1019.34+210204464+201899760+192033328+181259792+170051088+158916000+148556320
1026.09+139835552+133548016+130163144+129695000+131747712+135675040+140758576
1032.85+146332480+151873568+157037072+161660000+165714224+169233184+172235088
1039.60+174692224+176540048+177723152+178240320+178157376+177590000+176661456
1046.35+175490400+174211840+172993136+172034752+171509536+171499728+171986784
1053.10+172901712+174202864+175899696+178023168+180580880+183538448+186845744
1059.85+190468064+194378992+198540528+202889120+207327072+211756880+216109136
1066.60+220365632+224576800+228850160+233317040+238116864+243386192+249258656
1073.35+255830816+263096240+270911040+279016160+287141536+295096608+302785280
1080.10+310157824+317130432+323583232+329414432+334611648+339267968+343542848
1086.85+347577856+351448640+355165728+358702016+362006752+365001504+367581504
1093.60+369636864+371093344+371917760+372082336+371532544+370179136+367936896
1100.35+364775552+360743136+355949952+350546336+344696288+338596192+332486208
1107.10+326651040+321386944+316939424+313459552+311005440+309569760+309095008
1113.85+309448576+310391488+311579936+312635712+313238144+313186048+312402592
1120.60+310898336+308715232+305892000+302429184+298301664+293489312+288016160
1127.35+281982496+275567744+269001536+262544256+256451616+250958864+246225600
1134.10+242279760+238976688+236000592+232942656+229446624+225347424+220743104
1140.86+215944192+211338912+207220592+203686064+200630544+197831456+195067072
1147.61+192204208+189202512+186089552+182920992+179752480+176652368+173707968
1154.36+171039920+168794784+167119088+166132880+165889728+166374016+167517600
1161.11+169247744+171526928+174368640+177832672+181995856+186934032+192696064
1167.86+199270416+206567136+214416784+222602128+230897888+239092704+246974368
1174.61+254303856+260803552+266173200+270155936+272592320+273478752+272994240
1181.36+271474560+269361312+267127856+265214000+263999888+263803968+264901792
1188.11+267530496+271869312+278013376+285944416+295515808+306422176+318153120
1194.86+329961280+340876032+349842688+355970176+358788672+358408224+355460384
1201.61+350884544+345658944+340591136+336231168+332898688+330750208+329842112
1208.36+330153344+331602496+334067488+337422816+341566944+346434880+351993056
1215.11+358222976+365106336+372626720+380765760+389503296+398778816+408431264
1221.86+418148672+427500064+436079808+443716160+450608064+457293568+464433600
1228.61+472542944+481811872+492094432+503027072+514177120+525144736+535592000
1235.36+545218815+553763775+561023679+566880831+571305855+574334655+576038783
1242.11+576514495+575889215+574317439+571978495+569054079+565719935+562137023
1248.87+558443327+554759295+551182463+547807807+544723903+542014015+539744895
1255.62+537957183+536647872+535741536+535085408+534471552+533688032+532587616
1262.37+531102912+529226976+526987552+524429920+521611808+518583168+515348288
1269.12+511857856+508024640+503759776+498980768+493594080+487472672+480452832
1275.87+472376096+463153120+452815616+441530112+429567776+417273664+405024512
1282.62+393179232+381996160+371570016+361830144+352629824+343855328+335489024
1289.37+327579936+320175328+313270176+306807744+300705888+294884672+289292896
1296.12+283930880+278848544+274110208+269739072+265696880+261896384+258251728
1302.87+254711408+251251248+247854608+244490960+241129088+237761648+234416720
1309.62+231126656+227894272+224690336+221508864+218416288+215530288+212931184
1316.37+210595584+208424672+206348976+204410832+202755984+201545424+200883600
1323.12+200821312+201393376+202638800+204609296+207389824+211117856+215984976
1329.87+222191168+229849472+238916928+249154400+260152224+271387808+282261248
1336.62+292048032+299780704+304306912+304840384+301690112+296133728+289446592
1343.37+282335232+275108864+268041760+261502848+255844704+251272176+247834640
1350.12+245515360+244269888+243997424+244532000+245685456+247313776+249347120
1356.88+251780864+254641072+257962192+261784480+266147088+271043168+276340736
1363.63+281793728+287198432+292508576+297730624+302770784+307388832+311299520
1370.38+314302112+316245216+316874048+315860384+313167168+309413728+305549280
1377.13+302161952+299290432+296761824+294507456+292643616+291341760+290649152
1383.88+290388640+290149024+289377504+287638240+285042304+282318240+280228672
1390.63+279043360+278596928+278579936+278754528+279071392+279696384+280883104
1397.38+282850528+285764032+289735808+294796032+300946816+308293984+317043808
1404.13+327221504+338276864+349130560+358855136+367179488+374297504+380494112
1410.88+386014464+391067232+395756352+399941120+403111520+404148192+400983424
1417.63+390946464+373393216+352708416+335132800+322871840+314401728+307775712
1424.38+302274176+298251584+296197920+296143648+297792928+300855808+305113760
1431.13+310274560+315937056+321760896+327513856+332943648+337613280+341088064
1437.88+343426240+345138368+346616800+347959648+349171520+350326560+351560384
1444.63+352972928+354563552+356284992+358175296+360423168+363269888+366847520
1451.38+371123296+375937248+381063552+386230144+391097184+395194976+398262048
1458.13+401058752+404712512+409357728+414502016+419443264+423080960+423820320
1464.89+420433344+413691904+406260384+400405792+396891744+395645440+396443136
1471.64+398805728+401153504+400602944+395226752+385740704+374005792+361453152
1478.39+348747136+335983808+323195808+310932992+300379424+292722784+288423136
1485.14+287150432+288257792+291249376+295953504+302274816+309659232+317226560
1491.89+324603680+332095680+340310176+349969024+361775648+375957792+391671968
1498.64+407459808+422556992+437046624+451108736+464737152+477941920+491016160
1505.39+504723616+519843200+534968928+546635519+555123903+563114367+571970047
1512.14+581877951+592662911+604303871+617098367+631292223+646364415+661107071
1518.89+675041535+689433279+706267967+725704447+745065983+762071487+777258303
1525.64+792188863+807289599+821676607+834429439+845410367+854772415+862168383
1532.39+866623615+867572095+866283583+865041791+864893439+865153983+863710591
1539.14+856490431+838408639+811171263+785491455+765798207+749671935+735838847
1545.89+724333183+714546815+704972671+694070463+681350655+667792959+654939007
1552.64+643506047+633231935+623786623+615123583+606130239+591845439+564677055
1559.39+530247776+506518912+495329120+489035040+482727712+474863072+465856032
1566.14+456694432+447562272+437364768+425003872+411641472+400442912+393176032
1572.90+388940672+385532384+380494176+372129440+361529312+352152832+345710144
1579.65+341353952+337827232+334517408+331431360+328876096+327166368+326464704
1586.40+326793696+328113152+330381696+333595296+337764704+342889088+348941248
1593.15+355911040+363816928+372668288+382401248+392920768+404218176+416453696
1599.90+429911648+444846272+461296288+478993216+497487040+516440320+535831680
1606.65+555900799+576922175+598923711+621566271+644259839+666467007+688020799
1613.40+709396159+732009087+758121599+789042943+821876159+850993919+874282559
1620.15+893834495+912599743+932489471+953535999+973940607+991870271+1007183551
1626.90+1020835135+1033468607+1044922367+1054725375+1062718015+1069004991
1632.69+1073263615+1073741823+1066485631+1047637247+1020871615+996401023
1638.47+978262335+963731455+949921791+935991871+922404287+909435839+895677567
1645.22+877071615+848673407+812456383+780566271+761010623+750712703+741841087
1651.97+724107647+687957823+641805695+608105919+590111615+579102015+569453695
1658.72+559196863+547563903+533549408+516014144+495491392+475366720+459267904
1665.48+447896640+439361312+430781920+419292832+403646176+386361376+371726912
1672.23+360941952+352034016+342746784+332440128+322398400+314297408+308551616
1678.98+304432384+301002240+297518816+293097312+286134176+275227328+262529792
1685.73+252807072+247294752+243916912+240707088+237090224+233680064+231323520
1692.48+230289360+230280832+230881648+231876112+233233664+234955728+237175232
1699.23+240420928+245207072+251243472+257847328+264948640+273087872+282621856
1705.98+292954304+302744768+311094048+318067552+324049632+329120960+333081696
1712.73+335719680+336816640+335657984+330336128+318612224+301930336+286096160
1719.48+274559904+266381520+259391280+251988160+243492832+234195472+224976448
1726.23+216512464+208784896+201323648+193793904+186268752+178756928+170345728
1732.98+159204480+144970704+130907648+120289600+112817784+106360576+99160280
1739.73+90654024+81505168+72816240+65144424+58400852+52378120+47036936+42346736
1747.45+38068700+33739460+28955836+23842636+19117020+15453223+12995612+11467329
1755.16+10454010+9578586+8650928+7698028+6817312+5986135+5070126+4022048
1762.88+3017048+2309405+2016293+2107934+2329483+2774641+3361654+3996008+4531214
1771.56+4739488+4406383+3594823+2667747+1959535+1596622+1537338+1650223+1764195
1780.24+1740493+1537050+1226116+915499+676037+534860+511226+663469+1064894
1788.92+1751362+2654303+3539995+4055628+3993342+3535949+3034654+2706634+2608324
1797.59+2744285+3072718+3464150+3707900+3638888+3282667+2829873+2480822+2348378
1806.27+2447704+2728310+3088986+3394849+3513705+3373923+3012978+2566353+2195211
1814.95+2024881+2107934+2303799+2636953+3029020+3464800+3973894+4563928+5185796
1823.63+5752360+6202242+6541647+6807202+6978273+6934262+6513340+5708839+4771476
1832.31+4029708+3656291+3630231+3810680+4018281+4120584+4118674+4128711+4293436
1840.99+4683708+5276788+5924778+6382523+6435450+6084378+5497153+4820443+4123481
1849.67+3451322+2873683+2458881+2230201+2162391+2213654+2371257+2643612+3017178
1858.35+3427943+3780136+3995315+4071559+4092990+4214285+4596657+5328926+6340128
1867.03+7326295+7791748+7377586+6246408+4946165+3915197+3303078+3084132+3167959
1875.71+3442787+3791169+4121657+4398169+4628288+4830461+4999261+5099409+5114869
1884.39+5098846+5176187+5464151+5966311+6507345+6813583+6727229+6372924+6055836
1893.07+6015919+6284391+6707887+7052415+7150417+6976907+6633990+6289751+6105145
1901.75+6166209+6449606+6843246+7229318+7542104+7786749+7989042+8154681+8260848
1910.43+8275225+8192923+8049249+7918341+7881123+7994075+8268335+8673254+9145020
1919.11+9620091+10033271+10310091+10366584+10170950+9790859+9361642+8990861
1926.82+8696701+8448187+8232282+8088882+8094300+8311254+8738966+9297090+9854203
1935.50+10302700+10638756+10971847+11460121+12178923+13044084+13824032+14257131
1943.21+14239969+13899246+13447901+13020257+12645113+12336315+12155279+12174006
1950.93+12395752+12708303+12912136+12838986+12429891+11781419+11089298+10561919
1958.64+10354343+10526015+11003887+11586969+11999461+12015469+11595052+10940471
1966.36+10433773+10439999+11059408+12066948+13080690+13812724+14199835+14401546
1974.07+14688648+15299642+16291780+17519206+18712120+19641030+20201224+20413256
1981.79+20336698+20032558+19567566+19060716+18682102+18599328+18884490+19448384
1989.50+20064882+20459306+20424956+19931082+19116640+18218544+17438976+16887232
1997.22+16550985+16333078+16080095+15664500+15032768+14229316+13384970+12698131
2004.93+12368735+12507030+13029072+13685179+14236985+14625184+14972893+15407373
2012.65+15895744+16246811+16256295+15885034+15273968+14654289+14204060+13977045
2020.36+13942223+14056363+14306152+14688629+15143189+15520292+15621417+15357352
2028.08+14852415+14422563+14414104+15016259+16173791+17633018+19047816+20091764
2035.79+20555552+20426472+19886132+19236728+18774080+18692404+19011816+19600944
2043.51+20262008+20885050+21515256+22311924+23358222+24469322+25229988+25250092
2051.22+24432094+23034368+21478640+20114514+19100468+18450126+18148642+18203826
2058.94+18590662+19191408+19806384+20252684+20475830+20564512+20686958+20971364
2066.65+21447452+22051276+22669616+23181550+23486806+23538222+23366310+23090366
2074.37+22865910+22815750+22964928+23241296+23512510+23658984+23633598+23478568
2082.08+23299308+23206656+23256172+23429870+23640618+23752228+23628252+23181006
2089.80+22416316+21452754+20495942+19782606+19503376+19742242+20439694+21406732
2097.51+22393576+23202798+23734078+23989510+24026222+23928654+23792688+23707388
2105.23+23720948+23809418+23894332+23908988+23845746+23754990+23692574+23670186
2112.94+23648072+23567680+23393336+23132404+22806416+22427908+21965308+21380816
2120.66+20675564+19940768+19317100+18911426+18702190+18539208+18232888+17657880
2128.37+16807496+15788455+14771826+13949181+13479075+13433947+13765686+14321101
2136.09+14917887+15407109+15708809+15796039+15687816+15455104+15230288+15171548
2143.80+15382445+15853219+16445838+16970012+17263916+17251378+16923146+16300773
2151.52+15395263+14220645+12863241+11600490+10951730+11587152+14002868+18117168
2159.23+23088152+27684400+30930966+32584004+33011214+32785748+32292658+31628862
2166.95+30711514+29469366+27959906+26384494+25007640+24050838+23609930+23624856
2174.66+23899822+24200132+24350672+24323386+24253070+24363852+24821880+25609810
2182.38+26534374+27352304+27901374+28150412+28115190+27828416+27355534+26835574
2190.09+26443720+26284822+26318272+26404038+26424142+26374226+26342018+26388546
2197.81+26478936+26494136+26305002+25884066+25325894+24816808+24534898+24558542
2205.52+24835444+25225932+25585126+25843288+26012116+26152628+26310294+26483772
2213.24+26636548+26727478+26736956+26677240+26554852+26360562+26071750+25671014
2220.95+25173630+24640098+24157540+23827500+23714466+23825220+24094436+24427388
2228.67+24770166+25138016+25586512+26130934+26705658+27185368+27462948+27509744
2236.38+27375636+27141534+26863858+26576948+26293584+26047568+25893896+25902008
2244.10+26113048+26513132+27039114+27600568+28106784+28481144+28671582+28661700
2251.81+28512570+28358810+28362014+28626834+29139148+29775268+30384212+30860992
2259.53+31182386+31387916+31535378+31697018+31946738+32344030+32899296+33531000
2267.24+34079860+34380460+34351188+34059700+33680396+33400418+33319868+33433276
2274.96+33674904+33979296+34300344+34592772+34786152+34824828+34728964+34626284
2282.67+34707512+35120308+35888492+36907124+38021012+39116880+40181576+41273584
2290.39+42469440+43808328+45276976+46825160+48384544+49912704+51422488+52979060
2298.10+54651268+56446384+58288552+60106504+61938084+63968676+66456312+69577160
2305.82+73324576+77524624+81917464+86249448+90313760+93969752+97181880
2312.57+100073736+102950536+106214232+110225784+115171896+121041792+127676344
2319.32+134846864+142277520+149606816+156363232+162078496+166516528+169814112
2326.07+172419440+174859632+177492080+180371792+183265792+185827776+187846080
2332.82+189388576+190734400+192174992+193869600+195839440+198049744+200435552
2339.57+202827376+204837936+205750976+204476336+199733472+190876912+178973552
2346.32+166762064+157187056+152119648+152239104+157477296+167291296+180668512
2353.07+196144272+212142896+227468144+241371232+253198048+262260704+268218736
2359.82+271322976+272125696+270928576+267638272+261993168+253960608+243865504
2366.58+232257152+219661856+206444240+192839392+179061344+165347728+151910912
2373.33+138915472+126465192+114621704+103420224+92862640+82943640+73665384
2380.08+65038776+57077352+49805548+43276024+37573192+32783352+28942238+26006054
2387.79+23855186+22337502+21306318+20647088+20279970+20140722+20158910+20257576
2395.51+20355156+20401072+20400226+20401280+20453726+20569256+20731826+20919150
2403.22+21133404+21384920+21656856+21894804+22038106+22059282+21986892+21879420
2410.94+21785012+21718338+21678864+21678012+21754402+21944474+22241184+22587960
2418.65+22911908+23171128+23368056+23517928+23615838+23632390+23549910+23393428
2426.37+23221174+23103882+23089972+23187868+23370644+23576556+23740304+23817260
2434.08+23809332+23764666+23736056+23761860+23853512+24021344+24270546+24592412
2441.80+24955122+25306700+25614752+25875462+26118226+26362626+26600780+26790212
2449.51+26896614+26918888+26894064+26861890+26835700+26788552+26695124+26561406
2457.23+26427972+26352520+26360638+26432450+26524414+26595688+26634846+26649492
2464.94+26658970+26680974+26730740+26819710+26950340+27106014+27248356+27325898
2472.66+27308424+27210902+27093244+27028942+27061016+27181844+27354946+27543850
2480.37+27733574+27916502+28078734+28187604+28213962+28167344+28097316+28073026
2488.09+28144320+28315002+28555128+28818138+29066738+29271500+29411440+29475664
2495.80+29467706+29409630+29341494+29303030+29334574+29450544+29640052+29854908
2503.52+30034636+30140818+30188154+30240946+30367558+30591162+30882894+31180346
2511.23+31432048+31612916+31721032+31765934+31767508+31753284+31746952+31756152
2518.95+31765900+31750302+31693028+31597866+31488536+31410830+31414304+31524050
2526.66+31719902+31952552+32175394+32375084+32567972+32751866+32903344+32990490
2534.38+33025586+33062856+33156558+33314854+33499320+33665532+33804220+33942900
2542.09+34098496+34256004+34374532+34421080+34406836+34383320+34414056+34533404
2549.81+34733184+34975772+35217284+35425820+35579540+35660736+35657396+35584240
2557.52+35483544+35417480+35429136+35536504+35728680+35972136+36212320+36384892
2565.24+36439628+36381740+36273392+36202960+36230156+36347904+36496736+36614760
2572.95+36679600+36723984+36807368+36979412+37251004+37585916+37926308+38229608
2580.67+38484364+38700932+38890220+39036948+39107276+39072536+38954844+38820784
2588.38+38759032+38818172+38978532+39162104+39292728+39340400+39328584+39304224
2596.10+39303596+39341992+39427052+39548948+39679864+39769576+39778496+39708544
2603.81+39615952+39578208+39650720+39837308+40105504+40394180+40632920+40752124
2611.53+40701812+40481736+40153856+39826004+39601872+39538484+39624632+39805484
2619.24+40012536+40189572+40297564+40314404+40248824+40142576+40060080+40055624
2626.96+40137420+40260692+40352852+40362876+40290460+40184492+40109084+40103272
2634.67+40160232+40237384+40287512+40288792+40252964+40213308+40200392+40222428
2642.39+40267096+40313952+40348260+40363464+40354368+40319904+40270700+40226952
2650.10+40216504+40247528+40301756+40336336+40315512+40225372+40072476+39870188
2657.82+39633816+39385996+39152096+38958860+38818016+38712644+38615724+38506808
2665.53+38392168+38293896+38234628+38219548+38237212+38273144+38321348+38395184
2673.25+38517584+38698084+38922520+39159780+39377136+39563672+39727024+39875096
2680.96+40012000+40138528+40260960+40389952+40528764+40669496+40799584+40913852
2688.68+41014200+41119736+41245744+41400136+41567912+41717676+41813668+41846068
2696.39+41843800+41862276+41953364+42133164+42377668+42644296+42897280+43121076
2704.11+43316480+43488408+43636864+43758828+43856492+43947884+44066040+44247824
2711.82+44513732+44849300+45218752+45577312+45897392+46170488+46408352+46628472
2719.54+46853520+47107272+47396560+47715924+48043784+48363468+48682348+49028052
2727.25+49420796+49847468+50262148+50623548+50922348+51189696+51464192+51766320
2734.97+52092268+52429444+52786628+53178300+53605044+54034552+54424148+54745072
2742.68+55006068+55242172+55481304+55722624+55943160+56116884+56245432+56361400
2750.40+56511592+56742560+57070756+57473728+57893172+58266088+58548920+58739984
2758.11+58877376+59012292+59184200+59406804+59678732+59981640+60297172+60609156
2765.83+60901428+61164940+61394208+61587584+61752728+61904716+62078088+62309860
2773.54+62630480+63032816+63477964+63914104+64311340+64680360+65058188+65477188
2781.26+65930796+66373740+66750872+67034736+67256312+67482024+67782112+68193672
2788.97+68707104+69279616+69856328+70401248+70908328+71400352+71911672+72469184
2796.69+73082832+73741896+74425792+75108688+75766664+76387888+76975376+77547240
2804.40+78116712+78679376+79217608+79729224+80247768+80832424+81530024+82339224
2812.12+83210816+84084776+84932728+85772280+86642312+87573976+88562344+89571904
2819.83+90542496+91427768+92214424+92938008+93666136+94456216+95330640+96270960
2827.55+97250968+98255784+99288720+100354808+101460104+102625120+103895864
2834.30+105333792+107005280+108973696+111305104+114074672+117344520+121145152
2841.05+125478472+130339096+135743168+141728944+148321632+155515232+163261296
2847.80+171461600+179967200+188569248+197020288+205071296+212516304+219201024
2854.55+225017712+229884192+233740992+236557008+238344288+239160304+239099456
2861.30+238286096+236867088+235009296+232895520+230712736+228621760+226733040
2868.05+225071888+223590928+222187120+220736368+219118912+217231984+214989728
2874.80+212328880+209214560+205662416+201754656+197636720+193492720+189508176
2881.55+185826912+182547552+179725712+177390112+175555696+174220704+173384720
2888.30+173050544+173218880+173883072+175016608+176583312+178543680+180872656
2895.05+183554752+186577024+189923584+193564096+197458864+201556848+205812480
2901.80+210186816+214641664+219129824+223577040+227899232+232028368+235943360
2908.55+239677040+243308800+246946336+250710832+254716992+259059392+263786544
2915.30+268883360+274278048+279852384+285488608+291098144+296643936+302137888
2922.06+307608768+313061600+318445920+323654304+328559008+333046720+337050016
2928.81+340524256+343397216+345536480+346758816+346886272+345820064+343572160
2935.56+340250848+336012416+331018688+325422368+319377216+313047328+306593792
2942.31+300144704+293754528+287397664+280984256+274408832+267609024+260600720
2949.06+253482176+246419472+239592224+233149088+227170272+221660464+216574256
2955.81+211852736+207455696+203360992+199557008+196026432+192729360+189593392
2962.56+186521344+183397376+180134368+176696176+173115696+169471296+165838592
2969.31+162250288+158688960+155108096+151480656+147832960+144242112+140799152
2976.06+137551904+134488528+131566952+128765736+126111600+123662928+121458208
2982.81+119480720+117668320+115939824+114232520+112521168+110812688+109138920
2989.56+107544664+106083760+104800896+103718584+102828648+102092040+101467456
2996.31+100937448+100519720+100252304+100161160+100237432+100433624+100681208
3003.06+100911952+101073352+101137480+101102696+100994688+100855176+100733632
3009.81+100672592+100703568+100844792+101100120+101458264+101901016+102404600
3016.56+102945552+103516440+104123872+104771488+105447688+106128696+106795408
3023.31+107458336+108161760+108942528+109802040+110702416+111594656+112454104
3030.07+113290448+114139968+115056440+116096440+117296680+118638424+120035216
3036.82+121370536+122571064+123659136+124745552+125949448+127335144+128890808
3043.57+130571072+132344032+134198408+136115056+138047008+139940784+141762288
3050.32+143524560+145259856+146989168+148701776+150361984+151941776+153424256
3057.07+154797888+156036016+157109408+158004544+158735040+159330720+159811184
3063.82+160180512+160455280+160688592+160962288+161344864+161836720+162374256
3070.57+162860336+163208624+163371792+163346976+163170896+162907744+162630576
3077.32+162391536+162192240+161996912+161757072+161451136+161087008+160675872
3084.07+160227552+159735616+159205408+158646416+158084720+157545760+157059728
3090.82+156650672+156306256+155966896+155532752+154908848+154062784+153043632
3097.57+151961008+150930064+150027792+149265616+148605776+147972224+147288016
3104.32+146500368+145596240+144603600+143595856+142663616+141875968+141240896
3111.07+140705456+140185920+139629136+139044288+138480960+138000160+137651120
3117.82+137450256+137383616+137406944+137465616+137539072+137654272+137856672
3124.57+138154304+138484544+138761328+138950672+139096272+139285072+139570272
3131.32+139936832+140320416+140664720+140953360+141208544+141471552+141795328
3138.08+142232304+142824880+143582320+144466512+145404112+146316000+147151296
3144.83+147892432+148554096+149162848+149744304+150326384+150934224+151599408
3151.58+152358288+153239104+154254240+155374992+156547776+157710752+158829552
3158.33+159922336+161037200+162224288+163498512+164838320+166208832+167586192
3165.08+168983568+170428528+171944912+173525504+175132768+176716736+178247840
3171.83+179726928+181185408+182666848+184194304+185772704+187365984+188919840
3178.58+190389408+191763344+193077968+194383920+195722384+197108672+198517664
3185.33+199894336+201182752+202351216+203423856+204471376+205578736+206794400
3192.08+208112192+209494576+210905392+212312992+213672272+214917280+215983840
3198.83+216867280+217646896+218444480+219345984+220358256+221421536+222466304
3205.58+223476448+224491056+225563232+226715744+227914560+229092112+230186656
3212.33+231179728+232106176+233036528+234044400+235160928+236360224+237585776
3219.08+238793120+239994816+241250368+242621152+244132304+245759712+247460752
3225.83+249189536+250908720+252581408+254179840+255707088+257213152+258777456
3232.58+260487088+262408032+264572320+266969424+269545536+272224704+274924672
3239.33+277596640+280224480+282809312+285354176+287852672+290318592+292817248
3246.09+295459456+298353856+301548992+304991968+308551520+312065792+315409920
3252.84+318555680+321585920+324664544+327945440+331493984+335256544+339104896
3259.59+342923104+346658432+350326240+353956192+357558272+361101504+364526592
3266.34+367774432+370828096+373750912+376679104+379775552+383152192+386813856
3273.09+390675168+394616160+398538432+402396512+406190240+409958432+413773280
3279.84+417711968+421823104+426090848+430429152+434733248+438927232+442999328
3286.59+446990112+450941152+454858336+458687072+462331744+465690112+468699168
3293.34+471327072+473560128+475353536+476629152+477280960+477221024+476398880
3300.09+474785056+472357216+469115904+465116928+460480256+455338752+449759168
3306.84+443725824+437185600+430127264+422607616+414714816+406559904+398274464
3313.59+390024896+381970976+374187936+366634016+359208320+351835168+344527552
3320.34+337369152+330455200+323848704+317575520+311646752+306070208+300850176
3327.09+295962848+291357056+286960000+282714176+278586976+274574880+270675328
3333.84+266876048+263164384+259548768+256073808+252795728+249737744+246860640
3340.59+244083168+241346432+238656080+236078272+233685088+231479600+229381680
3347.34+227278816+225090704+222815440+220525760+218330752+216325440+214563392
3354.10+213035760+211665696+210350640+208996656+207567344+206090464+204628784
3360.85+203243792+201946496+200684288+199373920+197952784+196431216+194898032
3367.60+193463136+192204784+191134032+190222624+189420896+188675616+187933536
3374.35+187156448+186329120+185463440+184588080+183730048+182913232+182154448
3381.10+181457056+180791232+180103616+179342512+178497312+177616336+176777664
3387.85+176046336+175434384+174891824+174338672+173714336+173020832+172311184
3394.60+171644528+171027344+170418064+169776656+169108416+168477856+167970352
3401.35+167642736+167482912+167401536+167272240+166990896+166532880+165949440
3408.10+165321328+164706128+164125760+163582112+163092544+162674096+162331520
3414.85+162061968+161864336+161735808+161652592+161544768+161311888+160883296
3421.60+160270160+159575488+158909984+158322016+157779664+157211696+156587904
3428.35+155936832+155324144+154784128+154289712+153781376+153231536+152663872
3435.10+152137888+151693728+151345344+151080688+150872704+150674512+150424672
3441.85+150067472+149591168+149012864+148343968+147559200+146627664+145577888
3448.60+144516656+143566000+142793520+142186016+141687488+141244688+140835088
3455.35+140474496+140191344+139983360+139804304+139564880+139176304+138607728
3462.11+137892064+137114208+136354000+135656800+135032784+134482560+134007712
3468.86+133606040+133249952+132905880+132542632+132168320+131816816+131520064
3475.61+131274736+131045240+130791344+130471872+130053328+129503464+128824008
3482.36+128078896+127373024+126777440+126278752+125790976+125222248+124544584
3489.11+123819880+123151032+122609536+122196184+121847736+121483224+121053632
3495.86+120561456+120068216+119647360+119337896+119113232+118871672+118467824
3502.61+117785144+116840088+115808040+114890536+114175752+113595552+112997456
3509.36+112239576+111277752+110192560+109130304+108212264+107490848+106948848
3516.11+106531480+106191224+105918928+105725912+105602216+105485720+105278360
3522.86+104918344+104403712+103780120+103069952+102236272+101233072+100083920
3529.61+98905848+97851312+97026896+96440464+96007312+95571752+94957408+94059184
3537.33+92935048+91802944+90911416+90401496+90260672+90340008+90401736+90167072
3545.04+89423376+88167576+86664664+85285688+84249840+83529120+82928312+82225128
3552.76+81302880+80226240+79168536+78272456+77574416+77032328+76575352+76158216
3560.47+75803384+75607104+75681840+76056928+76557432+76728472+75934960+73910912
3568.19+71277224+68976208+67405944+66418144+65720904+65084544+64399568+63655064
3575.90+62902484+62199532+61571064+61017052+60540196+60164796+59949588+59960144
3583.62+60239380+60746876+61271656+61388568+60700916+59369764+58086824+57381392
3591.33+57299624+57590996+57911056+57982536+57721280+57262832+56790776+56335156
3599.05+55746896+54842020+53598648+52257944+51180044+50599568+50509228+50671148
3606.76+50697256+50218840+49141728+47742436+46401900+45314280+44482936+43868236
3614.48+43473352+43319464+43362156+43464208+43419508+43090824+42557720+42083752
3622.19+41880384+42030856+42543916+43381300+44394764+45172276+44946156+43108564
3629.91+40239080+37629764+35784056+34437976+33243346+32040080+30844202+29718134
3637.62+28689232+27746036+26873848+26084548+25425828+24973542+24818724+25042962
3645.34+25705968+26781342+28009724+28567594+27308948+24401782+21548810+19759432
3653.05+18941920+18664684+18469496+17978158+17063820+15936448+14924067+14173198
3660.77+13635557+13219404+12904690+12772506+12951011+13518111+14441502+15530107
3668.48+16407631+16627126+16111118+15409038+15120416+15354725+15820383+16022796
3676.20+15581271+14634220+13572439+12559038+11598587+10726983+10080369+9813728
3683.91+10015887+10683397+11736717+13054706+14462867+15662334+16261929+16097994
3691.63+15455208+14722981+14126644+13745916+13591546+13626199+13782269+13974853
3699.34+14138504+14226169+14215930+14109685+13946657+13812294+13824770+14112818
3707.06+14787372+15853200+17046196+17670566+16798928+14278019+11318261+9227250
3714.77+8386462+8592321+9546722+11013390+12815207+14810576+16884478+18920344
3722.49+20787312+22332374+23411578+23930816+23932726+23595882+23167756+22831786
3730.20+22690370+22756766+22960796+23097100+22809370+21753400+20010430+18100072
3737.92+16487051+15305746+14470891+13835199+13250967+12584912+11801934+11085027
3745.63+10767311+11039459+11810501+12842255+13716067+13760449+12540990+10585015
3753.35+8793298+7564413+6864419+6515440+6313597+6075597+5731812+5383740+5205430
3762.03+5252990+5440613+5628779+5712775+5680458+5596592+5504094+5336848+4962645
3770.70+4334320+3570676+2868116+2371967+2157120+2244566+2594139+3072930+3456817
3779.38+3548870+3366336+3141194+3097845+3273503+3520106+3615934+3432052+3023510
3788.06+2574017+2241063+2107934+2178388+2433283+2861329+3461494+4237891+5162008
3796.74+6146767+7082880+7857996+8335144+8315493+7705645+6780070+6003654+5550634
3805.42+5271964+4918578+4365046+3721498+3211812+2970239+3023441+3351193+3935213
3814.10+4741870+5686831+6621461+7425895+8080623+8606106+8898332+8776070+8226931
3822.78+7539650+6965571+6497895+6007337+5415381+4777372+4255715+4004928+4113432
3831.46+4596632+5400946+6417792+7520435+8590401+9493989+10036625+10013457
3839.18+9406669+8461378+7452313+6506363+5644260+4915866+4412558+4230822+4426993
3847.85+5011915+5960369+7207533+8600830+9789839+10099406+8977404+7019458
3855.57+5347545+4332212+3864587+3844159+4246381+5034669+6069984+7051556+7583346
3864.25+7441434+6864718+6356086+6259815+6618524+7232573+7765729+7910481+7582307
3872.93+6889803+6002593+5127703+4493313+4240109+4372345+4788894+5325794+5836319
3881.61+6249759+6568514+6752353+6689812+6335567+5855077+5537590+5542245+5798621
3890.29+6065805+6031063+5533887+4757580+4082005+3757103+3842935+4297985+5055462
3898.97+6025941+7088384+8071173+8731002+8767782+7997405+6577065+4991824+3688406
3907.65+2829135+2357140+2149641+2107934+2197230+2448818+2891574+3503442+4190636
3916.33+4793782+5149906+5200147+5044297+4852310+4744483+4719195+4674486+4485485
3925.00+4127119+3740467+3559051+3738174+4260883+4910968+5339396+5254219+4662477
3933.68+3886082+3286437+3021186+3036353+3186062+3353575+3493049+3597202+3656053
3942.36+3644257+3563697+3484214+3486168+3600570+3786163+3959091+4043835+4011542
3951.04+3864635+3622812+3310629+2978515+2696838+2537036+2529287+2653635+2840538
3959.72+3009114+3090608+3053467+2918724+2750824+2622833+2590009+2658013+2800701
3968.40+2978443+3162392+3346887+3525731+3665207+3700060+3571501+3280894+2902410
3977.08+2548759+2299192+2171485+2138127+2169462+2240695+2324332+2370767+2341450
3985.76+2243392+2138868+2107934+2198462+2406521+2680647+2952631+3158035+3236988
3994.44+3148231+2895821+2558231+2259210+2107934
##END=
