##TITLE=Default
##JCAMP-DX=4.24
##DATA TYPE=INFRARED SPECTRUM
##DATE=19/9/2016
##SAMPLING PROCEDURE=ATR
##ORIGIN=Default
##XUNITS=1/CM
##YUNITS=ABSORBANCE
##RESOLUTION=4
##FIRSTX=599.84104
##LASTX=3998.2974
##DELTAX=0.96437467
##MAXY=2
##MINY=0
##XFACTOR=1
##YFACTOR=1.8626452e-009
##NPOINTS=3525
##FIRSTY=0.058548193
##XYDATA=(X++(Y..Y))
599.84+31432822+32937208+34346964+34949876+34432988+32944360+30826488+28291074
607.56+25367710+22092362+18718288+15702782+13532880+12587567+13062219+14917967
615.27+17798006+21008784+23751906+25548160+26622410+27832540+30214608+34466364
622.99+40670676+48393360+56949372+65674428+74029568+81631872+88272016+93920728
630.70+98631328+102445904+105385176+107603944+109532560+111829168+115090472
637.45+119573256+125166312+131543968+138358656+145335552+152334208+159399888
644.20+166747168+174635792+183164960+192122496+200987104+209141024+216195648
650.95+222213856+227651136+233052224+238720480+244604112+250401968+255799536
657.70+260643584+264996192+269020224+272824736+276470240+280242208+285019392
664.45+292446176+304768960+323868672+348213856+369346304+377656032+374152000
671.20+367015424+362070880+361124768+363719200+368514464+374151424+379707360
677.96+384693888+388844384+392019232+394233408+395632160+396401056+396682208
684.71+396543360+395939168+394693888+392565312+389403808+385299840+380571328
691.46+375620768+370780096+366248480+362103168+358346656+354952160+351917568
698.21+349280736+347089760+345332896+343917472+342727968+341726112+341026144
704.96+340855072+341444192+342922528+345298880+348535936+352654048+357779552
711.71+364120320+371898848+381307328+392525088+405720544+420939296+437832576
718.46+455374368+471843296+485268320+494148704+497885216+496577760+490514592
725.21+479872576+464804736+445652672+423026080+397677376+370361152+341758560
731.96+312444384+282870688+253375696+224274784+195979248+169046160+144118528
738.71+121797888+102517728+86458144+73517088+63365224+55561484+49684544
745.46+45389100+42388000+40407980+39163388+38381784+37839972+37383976+36926272
753.18+36421252+35840724+35171836+34416768+33593344+32712864+31775220+30782282
760.89+29782814+28891864+28240184+27884000+27747342+27654890+27424326+26972632
768.61+26345568+25685388+25152644+24854916+24812110+24974060+25264478+25606540
776.32+25926654+26152758+26237956+26208522+26179888+26308618+26712946+27426452
784.04+28429028+29702644+31261364+33114626+35209280+37395764+39426832+40999988
791.75+41809444+41612516+40289252+37891792+34658604+30980378+27318580+24087774
799.47+21540648+19715140+18466038+17574724+16865260+16267244+15783108+15411456
807.18+15081625+14680719+14144345+13546224+13062219+12259784+11717969+11274826
814.90+10741588+10044743+9269930+8582543+8122039+7953094+8069205+8413002
822.61+8900169+9454318+10065006+10812301+11809541+13103652+14608788+16146080
830.33+17548736+18762856+19859312+20975072+22231534+23683368+25317260+27082810
838.04+28928712+30817212+32733334+34672620+36622584+38522640+40227300+41497284
845.76+42054360+41688360+40358828+38223724+35580648+32754944+30008116+27504678
853.47+25311844+23420806+21763438+20246330+18807372+17478540+16409758+15839518
861.19+16009473+17085952+19133784+22169656+26260138+31588942+38383316+46677276
868.90+55987628+65146736+72484272+76392672+75997616+71539136+64209428+55578016
876.62+46960284+39093504+32171956+26101298+20747696+16050984+12022795+8679349
884.33+5996161+3896273+2286945+1102182+331619+0+122796+658651+1502830+2520436
893.98+3604817+4734310+5990149+7523452+9474685+11891733+14697535+17703920
901.69+20661670+23291506+25299666+26400968+26378528+25183840+23003834+20251306
909.41+17460168+15127308+13576204+12913356+13062219+13572939+14575413+15970865
917.12+17725402+19838272+22306314+25096104+28139414+31360606+34722088+38265676
924.84+42115360+46447752+51419388+57113416+63483512+70325352+77236512+83601784
932.55+88648592+91587896+91817832+89112960+83731160+76365176+67971688+59529480
940.27+51810216+45255656+39976784+35863420+32706826+30300582+28481708+27145826
947.98+26236920+25728118+25587184+25758486+26169264+26761686+27511882+28426204
955.70+29514316+30775986+32212638+33824424+35613968+37558852+39611660+41710488
963.41+43803328+45851600+47820272+49662284+51308096+52673204+53673140+54234596
971.13+54305000+53863228+52937400+51603648+49992168+48264164+46582880+45092696
978.84+43905392+43104072+42749444+42877112+43478396+44489056+45792936+47243968
986.56+48709356+50104184+51410372+52670044+53968456+55406584+57073176+59019928
994.27+61256968+63756960+66483756+69407688+72525208+75850880+79428080+83325648
1001.99+87640392+92484384+97968400+104176600+111138464+118817984+127123528
1008.74+135962448+145311568+155230496+165776864+176819328+187858224+197991712
1015.49+206076176+211053904+212298128+209804624+204138736+196171856+186758864
1022.24+176550272+166027664+155682480+146160224+138237440+132618920+129711080
1028.99+129505080+131624920+135477072+140405408+145805072+151195968+156262000
1035.74+160855792+164951744+168580416+171755984+174446528+176576944+178070416
1042.49+178893952+179092400+178782416+178115136+177231312+176260320+175336576
1049.24+174623456+174288000+174444896+175120336+176260096+177789952+179653216
1055.99+181815776+184256640+186960896+189938544+193229472+196873952+200868016
1062.74+205134592+209535584+213912976+218136336+222143920+225973056+229764864
1069.49+233724928+238071936+242977984+248541264+254769824+261577696+268799264
1076.24+276221824+283648288+290931680+297977952+304711776+311049152+316909120
1082.99+322242176+327050912+331384448+335311968+338896608+342188960+345233632
1089.74+348067552+350703808+353103680+355182496+356833408+357977280+358575328
1096.49+358600384+357999104+356675072+354526336+351505440+347660416+343128224
1103.24+338099008+332767008+327310816+321899168+316706656+311923488+307743136
1110.00+304340768+301854400+300362144+299856160+300206880+301160032+302368928
1116.75+303471008+304170176+304280960+303725440+302499488+300629824+298142880
1123.50+295045664+291329280+286991808+282062624+276633248+270864320+264973104
1130.25+259209920+253821328+249008656+244889632+241459920+238572080+235943024
1137.00+233210704+230043200+226264416+221928736+217302496+212749472+208580064
1143.75+204936320+201765728+198880400+196045888+193079024+189885088+186473552
1150.50+182928560+179374560+175942992+172762160+169955888+167649360+165955824
1157.25+164956112+164677408+165094736+166153776+167808656+170045696+172896432
1164.00+176436992+180767728+185989728+192157936+199241360+207114512+215580176
1170.75+224416176+233406496+242337728+250970288+259020624+266171904+272111264
1177.50+276580704+279426144+280645472+280424224+279125344+277233920+275274368
1184.25+273748512+273102432+273712512+275883328+279833216+285689536+293490464
1191.00+303171552+314526880+327127744+340262784+352932416+363949120+372156896
1197.75+376717440+377355648+374453408+368923456+361939968+354641696+347917216
1204.50+342330048+338152448+335452992+334182400+334233824+335475392+337779936
1211.25+341040160+345170720+350106752+355800064+362218944+369348256+377182496
1218.01+385714304+394916064+404696640+414850304+425024640+434767136+443669920
1224.76+451562112+458635872+465413344+472540480+480534816+489605792+499632928
1231.51+510266848+521081024+531687616+541783743+551127423+559510015+566748351
1238.26+572701695+577302079+580557375+582538495+583359103+583154687+582072703
1245.01+580264831+577881535+575074815+571988671+568756863+565503167+562338879
1251.76+559372479+556708287+554445311+552664511+551418879+550707775+550453951
1258.51+550506687+550664575+550724863+550530623+549989439+549060863+547743487
1265.26+546062655+544056319+541746751+539105407+536052320+532472032+528255040
1272.01+523302208+517514112+510761696+502882272+493724800+483224864+471471008
1278.76+458716032+445326688+431705760+418238656+405248672+392959040+381468160
1285.51+370752576+360732128+351342560+342564512+334402304+326839680+319823840
1292.26+313278976+307126688+301294784+295725184+290391328+285309440+280521408
1299.01+276056800+271903808+268000704+264270944+260647728+257086160+253551200
1305.76+250011264+246449952+242888752+239382992+235986096+232705536+229506576
1312.51+226363968+223320224+220475216+217908608+215615280+213523424+211577408
1319.26+209799728+208297808+207199440+206601920+206566800+207132800+208327392
1326.02+210186112+212789648+216295504+220930608+226921904+234396432+243305744
1332.77+253398976+264254800+275350848+286112256+295874112+303748320+308620960
1339.52+309629792+306909024+301598720+294976416+287844096+280620608+273643104
1346.27+267292432+261905648+257667728+254613120+252703184+251858672+251952704
1353.02+252811392+254256640+256157248+258445648+261116944+264211936+267803424
1359.77+271992896+276891968+282527904+288686368+294939616+300949920+306676192
1366.52+312208224+317503232+322285888+326183904+328942080+330437920+330504352
1373.27+328897728+325628384+321310944+316881536+312939840+309565184+306624000
1380.02+304059744+301961184+300457888+299578944+299174624+298901728+298262208
1386.77+296795648+294461024+291805888+289533824+287987232+287117472+286698592
1393.52+286519424+286508128+286795168+287654816+289358880+292074688+295823648
1400.27+300519584+306143328+312904832+321186912+331179328+342383584+353608160
1407.02+363742944+372413728+379808160+386221120+391860384+396850048+401220512
1413.77+404828192+407245952+407525600+403844736+393801152+376812832+356921920
1420.52+339909024+327877472+319491680+312988992+307686240+303866560+301966208
1427.27+302062880+303968768+307453312+312210944+317749728+323538304+329296736
1434.03+335028704+340780960+346290272+350899392+354131168+356203904+357641920
1440.78+358801248+359856736+360936416+362169248+363652224+365418272+367458976
1447.53+369783936+372449856+375536832+379096224+383113312+387506720+392163456
1454.28+396988064+401939168+406943776+411704096+415915104+419854272+423989088
1461.03+428400384+432711744+435978720+436656960+433412864+426750048+419097472
1467.78+412697632+408436448+406409888+406603552+408823168+411763520+412498944
1474.53+408658816+400558656+389930112+378212384+366120736+353832416+341454272
1481.28+329548288+319240256+311647776+307222336+305707456+306592960+309581728
1488.03+314750528+322116160+330787456+339275136+346965632+354359904+362386176
1494.78+372066656+384368000+399639104+416830368+434004992+450053056+465005376
1501.53+479128128+492522336+505343808+518176608+532422080+549912191+569323263
1508.28+584658559+594677567+603013631+611949759+621985855+633031295+645192895
1515.03+658999935+674865279+692083199+708926591+724610559+740684863+759642495
1521.78+781568895+802931967+820845375+836086399+850656063+865045311+878146943
1528.53+888937151+897441855+904038719+908471551+909711295+907155263+902243007
1535.28+897542655+894247039+891678399+887714687+878320319+858402687+829433983
1542.04+801852095+780185599+762233151+746786303+733851839+722815167+712208959
1548.79+700539711+687300223+673373119+660180351+648385151+637736703+627929087
1555.54+618971967+609991359+596610175+571665343+539446975+516136384+504073632
1562.29+496674432+489501184+481086912+471744512+462339264+453037792+442861888
1569.04+430803584+417856064+406825792+399321984+394596096+390733440+385570304
1575.79+377533952+367414464+358147360+351312800+346287520+342039328+338063552
1582.54+334385184+331291552+329073632+327884480+327746944+328617184+330439552
1589.29+333175616+336807328+341328480+346754976+353135680+360522464+368893760
1596.04+378112192+388031264+398659584+410226528+423081760+437494464+453457920
1602.79+470618176+488461760+506661632+525290432+544736191+565396607+587323007
1609.54+610039551+632727039+654678335+675721663+696507135+718772799+745176767
1616.29+777175167+811303615+841027199+864020095+882867327+901136191+921163071
1623.04+943032959+964531583+983338175+999252991+1013538239+1027093183
1628.83+1039709119+1050640383+1059519359+1066503615+1071612927+1073741823
1634.62+1069790975+1056098815+1034538047+1013033599+995554431+980525631
1640.40+965860223+950996287+936430975+922464959+907851135+888845695+860739711
1647.15+825094783+793080447+772370367+760414847+750128383+732055423+697244031
1653.90+653072639+619997823+601194623+588826431+577775487+566231999+553490623
1660.65+538627327+520596864+499896192+479640672+463159232+451101856+441758656
1667.40+432550080+420921632+405731680+389138944+374886208+364056704+354946304
1674.15+345556448+335278880+325207904+316831200+310556064+305785792+301743584
1680.91+297844288+293378272+286918624+276967264+265024016+255296096+249247856
1687.66+245310896+241802944+238154624+234791552+232365408+231100400+230807904
1694.41+231240896+232294576+233894336+235872384+238246144+241503296+246024736
1701.16+251368736+256895968+262733216+269601024+277963808+287275904+296179936
1707.91+303716896+309918240+315180160+319646368+323195808+325701792+327071072
1714.66+326799520+323291680+314347136+300542624+286492064+275472352+267130288
1721.41+259855632+252364368+244081232+235217104+226476192+218412224+211010016
1728.16+203885024+196771488+189746128+182810448+175104256+164866128+151597824
1734.91+138203520+127802272+120283304+113760240+106615112+98301808+89401888
1741.66+80923368+73397344+66771744+60884600+55705580+51183896+47052448+42832688
1749.38+38131148+33095030+28440760+24817928+22351816+20783650+19745100+18919052
1757.09+18146836+17439866+16846832+16309285+15667088+14838949+13959750+13286278
1764.81+12979852+13062219+13328099+13853259+14536176+15255351+15833662+15995377
1772.52+15493279+14419230+13216646+12278498+11744677+11568153+11616168+11723138
1780.24+11749244+11635019+11423216+11207585+11059376+11002506+11046161+11229351
1787.95+11623158+12280850+13161117+14055384+14615952+14619722+14227781+13788409
1795.67+13520954+13478212+13647798+13976489+14335399+14542007+14471611+14171423
1803.38+13814411+13561292+13489717+13609397+13889600+14260378+14610919+14802038
1811.10+14727677+14385674+13891188+13412474+13104779+13062219+13165134+13465451
1818.81+13863138+14305957+14800554+15358926+15949805+16502302+16961704+17348586
1826.53+17732204+18124152+18395822+18308734+17721780+16801576+15910387+15313976
1834.24+15069233+15077227+15168598+15201985+15154204+15124457+15248231+15605425
1841.96+16177161+16817694+17267158+17302218+16927300+16323349+15638151+14927904
1849.67+14234207+13645350+13273659+13183972+13357146+13706378+14133845+14563766
1857.39+14938897+15209157+15340652+15340911+15274363+15240937+15358622+15730527
1865.10+16410691+17343132+18289864+18822240+18584422+17666290+16544240+15647920
1872.82+15145142+15020072+15172349+15477214+15817824+16118704+16351489+16522053
1880.53+16654326+16773164+16887590+16995020+17092138+17198460+17354332+17584992
1888.25+17852512+18064042+18149032+18144862+18169238+18308028+18545198+18775384
1895.96+18879550+18810334+18615470+18394086+18238118+18204472+18295538+18471724
1903.68+18687344+18923982+19190854+19496632+19807968+20047638+20128800+20016058
1911.39+19759746+19485030+19343196+19452724+19850670+20451428+21072772+21533802
1919.11+21786874+21908646+21980254+21977910+21815118+21459822+21007780+20619038
1926.82+20402312+20371224+20473582+20646376+20859170+21114562+21429908+21800420
1934.54+22190710+22556330+22896540+23277914+23816374+24590804+25555046+26499264
1942.25+27129904+27261840+26970748+26510684+26109798+25876430+25823110+25922856
1949.97+26113652+26295592+26342168+26158278+25746178+25213406+24738140+24480718
1957.68+24515648+24812662+25261998+25733740+26132244+26427190+26632592+26779830
1965.40+26905276+27047168+27245962+27514040+27809660+28041752+28126782+28056612
1973.11+27963706+28107120+28774788+30085942+31863626+33660120+34988920+35577316
1980.83+35470828+34932840+34270912+33697232+33295968+33062426+32963806+32971412
1988.54+33053604+33145408+33141172+32929668+32465614+31809806+31090710+30412464
1996.26+29807948+29255866+28727720+28227020+27795862+27483534+27303668+27241098
2003.97+27290642+27496070+27914318+28525330+29181740+29682276+29910780+29914142
2011.69+29838194+29801070+29820878+29852154+29862350+29856462+29862960+29899592
2019.40+29976330+30108538+30315988+30593704+30897512+31143472+31245948+31170524
2027.12+30976206+30811116+30849414+31202804+31873058+32769156+33755088+34677468
2034.83+35392528+35793284+35883672+35776636+35636272+35575732+35608884+35670944
2042.55+35699464+35708736+35829492+36262884+37161524+38463912+39790400+40585452
2050.26+40435020+39335928+37700188+36077568+34856412+34114716+33717392+33505906
2057.98+33421732+33479294+33675460+33940484+34184060+34368980+34525028+34715148
2065.69+34968772+35267224+35565152+35823104+36015148+36131460+36181844+36203716
2073.41+36256684+36383744+36580632+36784392+36914248+36918892+36807944+36645140
2081.12+36509384+36454204+36486444+36567016+36645372+36685200+36662432+36549084
2088.84+36300560+35874660+35282572+34627672+34099868+33902816+34158572+34834672
2096.55+35751244+36661788+37378824+37836448+38084176+38211480+38281528+38295428
2104.27+38228360+38067708+37857048+37676604+37599536+37639188+37732204+37781120
2111.98+37711648+37518252+37249656+36963124+36683284+36390700+36042964+35603072
2119.70+35062192+34450352+33823644+33232958+32693806+32171030+31600842+30930568
2127.41+30143662+29272910+28392630+27619138+27101524+26984902+27352304+28164574
2135.13+29238440+30306582+31121662+31558508+31642092+31500880+31286292+31112942
2142.84+31042184+31086758+31230226+31429150+31620884+31727582+31678992+31415222
2150.56+30899560+30107190+29038150+27780244+26619022+26110108+26967942+29690412
2158.27+34097336+39183308+43598288+46435076+47660240+47860556+47680444+47420808
2165.99+47034484+46350240+45300508+43976620+42570388+41279788+40255580+39592920
2173.70+39316416+39375540+39640564+39926552+40094676+40137688+40211468+40524012
2181.42+41165344+41999696+42732972+43106080+43058016+42734992+42379548+42184768
2189.13+42218712+42409948+42607132+42652572+42451480+42009824+41431396+40874212
2196.85+40485640+40349200+40448000+40671952+40878660+40961156+40891072+40719772
2204.56+40539024+40442824+40486200+40649328+40831748+40898484+40763340+40453948
2212.28+40097888+39831748+39721112+39732980+39780800+39783580+39703156+39546012
2219.99+39347380+39155064+39023340+39005928+39145632+39438940+39816228+40152596
2227.71+40344796+40396328+40426540+40578344+40892920+41280752+41598360+41765428
2235.42+41798056+41750592+41643784+41455400+41183972+40888656+40677708+40640272
2243.14+40804876+41135772+41569224+42045764+42516816+42937480+43259504+43454660
2250.85+43542216+43610296+43783212+44155416+44731268+45421012+46105340+46709964
2258.57+47233712+47719272+48199524+48668700+49112108+49535508+49970488+50442708
2266.28+50926720+51348868+51635472+51768252+51801140+51816168+51859848+51916552
2274.00+51936236+51876484+51727072+51494156+51188540+50820476+50432196+50114052
2281.71+50007308+50272572+51031372+52314780+54041724+56047176+58155908+60260316
2289.43+62349944+64485456+66743204+69167264+71751840+74458360+77245520+80106752
2297.14+83068600+86155616+89337856+92528152+95667248+98837368+102305064
2303.89+106435936+111517072+117606840+124505728+131833456+139160000+146106864
2310.64+152414288+157999632+163002000+167806816+172982048+179137712+186746720
2317.39+196017616+206834000+218764512+231129840+243116928+253961616+263193088
2324.14+270809984+277254688+283169888+289092864+295229248+301372832+307019616
2330.89+311658656+315121568+317740384+320128736+322807168+325967360+329566496
2337.64+333531840+337817408+342194624+345964096+347762784+345566496+337140256
2344.39+321487136+300616704+279325920+262631168+253677264+253633936+262473232
2351.15+279403648+302785696+330070304+358348064+385352224+409780064+430678464
2357.90+447014240+458052224+463801792+464811712+461617152+454530624+443742048
2364.65+429506144+412239456+392525568+371027872+348343744+324935584+301191744
2371.40+277500160+254257584+231829632+210504992+190465776+171771248+154367584
2378.15+138123584+122898720+108604544+95239928+82903544+71761808+62005060
2384.90+53784716+47159224+42071068+38357916+35787748+34107524+33081038+32516400
2392.61+32264066+32207202+32251018+32323112+32387808+32454168+32551382+32697926
2400.33+32872020+33033548+33151478+33241314+33351304+33522652+33756108+34006772
2408.04+34215492+34343808+34390236+34377888+34340756+34314908+34336196+34441036
2415.76+34641824+34910492+35183796+35390732+35498936+35524664+35518036+35524352
2423.47+35563396+35629440+35706020+35781128+35850512+35918036+35988712+36062708
2431.19+36133752+36199256+36267896+36359476+36488240+36642160+36789432+36905076
2438.90+36999444+37106404+37256832+37444280+37635624+37803472+37950608+38109220
2446.62+38308560+38548992+38803524+39034928+39219692+39348372+39424848+39453748
2454.33+39441912+39391196+39305680+39189248+39058388+38938824+38857020+38830940
2462.05+38857792+38925736+39020904+39132728+39244920+39330460+39360276+39323268
2469.76+39245720+39176688+39158748+39206516+39304276+39428696+39563664+39699756
2477.48+39826780+39937876+40035284+40137324+40269548+40441032+40634560+40819772
2485.19+40977956+41115580+41255612+41414368+41583312+41739488+41864552+41954596
2492.91+42013888+42044832+42042060+42001864+41940920+41893684+41900544+41979840
2500.62+42113052+42252392+42349852+42388028+42393404+42415460+42497924+42652276
2508.34+42856672+43079060+43290528+43475688+43624900+43729260+43788948+43817864
2516.05+43842700+43885340+43951704+44036048+44128740+44223836+44314496+44385876
2523.77+44429260+44457988+44500256+44585544+44723492+44895004+45074124+45242680
2531.48+45387512+45494516+45551452+45565720+45571280+45610036+45697384+45816088
2539.20+45930332+46018064+46089280+46161984+46248236+46340056+46422780+46493636
2546.91+46560416+46635720+46727924+46836816+46965016+47111768+47267056+47411604
2554.63+47519960+47581740+47611052+47637204+47693796+47789360+47915544+48053796
2562.34+48195396+48339412+48485304+48625992+48748488+48850764+48945792+49056800
2570.06+49193800+49339528+49459644+49528140+49553928+49580100+49657512+49809568
2577.77+50015308+50223468+50385956+50482704+50529676+50564204+50619156+50699376
2585.49+50784616+50855180+50910696+50972532+51065944+51186668+51301456+51373328
2593.20+51387056+51357868+51319200+51303764+51332908+51417592+51554312+51720568
2600.92+51876424+51982688+52020944+52006984+51980752+51982776+52031624+52119116
2608.63+52213668+52277752+52282184+52217308+52096140+51953408+51832436+51767384
2616.35+51768288+51817692+51884180+51940636+51974612+51985176+51971964+51936828
2624.06+51887568+51843144+51825840+51849964+51912372+51993352+52069876+52123728
2631.78+52153436+52167712+52179956+52194608+52205552+52205892+52200668+52204552
2639.49+52229052+52269716+52309268+52329868+52328540+52314216+52296540+52276444
2647.21+52251712+52226980+52217296+52233620+52270380+52305472+52313252+52277740
2654.92+52202480+52098420+51975776+51835500+51673124+51482536+51266688+51037120
2662.64+50817412+50629288+50488708+50403472+50375236+50399172+50464876+50552128
2670.35+50639756+50709924+50764312+50821300+50905404+51032960+51209924+51427192
2678.07+51675680+51939792+52198724+52428516+52605552+52726472+52806536+52876932
2685.78+52965724+53085364+53225824+53369816+53511956+53660980+53828792+54009980
2693.50+54178172+54301572+54371624+54411936+54466932+54572124+54734944+54937380
2701.21+55148756+55347320+55524128+55684948+55837224+55991556+56151108+56323312
2708.93+56514116+56728384+56972048+57247180+57549324+57868792+58188852+58492940
2716.64+58768572+59014816+59232592+59425244+59597616+59762168+59943680+60168972
2724.36+60456104+60805292+61203324+61622460+62039604+62434068+62803412+63155276
2732.07+63498976+63832648+64145096+64429976+64696416+64978724+65305456+65685588
2739.79+66096732+66501208+66862060+67156504+67383032+67552840+67686232+67805456
2747.50+67927472+68065560+68229592+68426880+68667304+68957432+69295408+69667208
2755.22+70045056+70397888+70703680+70962224+71191248+71415448+71652176+71912656
2762.93+72194840+72498368+72819512+73148528+73469912+73765144+74023560+74247568
2770.65+74450624+74653704+74874768+75126896+75410872+75720120+76041008+76365304
2778.36+76700488+77069216+77492296+77969008+78466944+78939872+79354392+79716496
2786.08+80057288+80410664+80795008+81209216+81646536+82098928+82564696+83046472
2793.79+83556472+84108416+84707560+85341720+85981680+86605032+87207456+87805136
2801.51+88417008+89048368+89691896+90330456+90947168+91525040+92058256+92568016
2809.22+93108744+93748200+94529592+95435104+96391000+97312328+98155312+98933656
2816.94+99699752+100500928+101356104+102252856+103165728+104069240+104949016
2823.69+105804856+106646000+107491904+108363392+109278816+110251504+111287160
2830.44+112384720+113545584+114784408+116133528+117635024+119332784+121277288
2837.19+123532120+126179216+129297112+132939136+137122640+141842224+147099024
2843.94+152905472+159270848+166184384+173606912+181456128+189600848+197852496
2850.69+205989712+213796304+221098032+227765440+233693152+238783632+242950288
2857.44+246140032+248348144+249612800+250007072+249630960+248613504+247115376
2864.19+245322688+243424672+241576912+239875088+238332160+236892256+235456224
2870.94+233916576+232176928+230166768+227836016+225154640+222106224+218694048
2877.69+214957008+210986096+206931136+202978608+199309744+196062016+193310240
2884.44+191071536+189333680+188078768+187303616+187023008+187250016+187979488
2891.20+189174496+190774752+192717872+194962704+197506224+200377424+203613712
2897.95+207227824+211183744+215400080+219782992+224256320+228772880+233292400
2904.70+237761840+242113520+246287744+250260816+254051168+257714336+261336512
2911.45+265022224+268884096+273019232+277480576+282266368+287328736+292596544
2918.20+298002336+303494272+309033312+314591840+320147008+325672288+331131776
2924.95+336465664+341592224+346416064+350844352+354789344+358148256+360781536
2931.70+362510656+363154400+362588576+360793120+357855744+353933760+349206240
2938.45+343843072+338001120+331836416+325497600+319112480+312747104+306397824
2945.20+300004096+293488384+286795840+279914976+272879648+265777712+258748320
2951.95+251965664+245597872+239749440+234436288+229596512+225141792+220989216
2958.70+217079504+213373776+209844064+206463216+203193088+199974448+196732400
2965.45+193399936+189947984+186383616+182733552+179015360+175236048+171408176
2972.20+167572480+163797104+160145904+156652640+153302544+150060832+146912240
2978.95+143888960+141064048+138504352+136231856+134204776+132347896+130587208
2985.70+128872448+127179048+125500096+123844528+122242664+120749280+119424192
2992.45+118306216+117390024+116630504+115977680+115403264+114919896+114560488
2999.21+114348680+114276848+114308064+114392688+114486976+114563832+114613248
3005.96+114639152+114650088+114653472+114656080+114667024+114706952+114802568
3012.71+114980224+115251280+115609720+116034152+116502016+117009024+117571096
3019.46+118210832+118929984+119700528+120482264+121255656+122042352+122875016
3026.21+123759392+124659968+125524904+126327704+127082768+127837280+128642944
3032.96+129548016+130583760+131749192+132997192+134251440+135446672+136575024
3039.71+137696928+138898096+140242592+141745920+143389376+145145648+146990016
3046.46+148896800+150828944+152738880+154587088+156348848+158019760+159603936
3053.21+161109904+162552704+163954400+165334224+166690000+167987376+169177520
3059.96+170221696+171108176+171842256+172428624+172871056+173192304+173451760
3066.71+173727872+174082992+174523728+175006064+175461232+175820032+176029840
3073.46+176068256+175949120+175729920+175483088+175261792+175070064+174880480
3080.21+174673136+174453648+174236288+174007344+173717424+173309552+172765424
3086.96+172118336+171439568+170800272+170252576+169813760+169458496+169123904
3093.71+168718400+168163008+167418272+166510752+165518976+164543680+163678816
3100.46+162973888+162409568+161896528+161314528+160575952+159668224+158658576
3107.22+157651360+156743584+155981776+155353936+154808928+154291856+153773312
3113.97+153257584+152759552+152295376+151885328+151563312+151380672+151381648
3120.72+151568000+151894080+152273680+152621104+152868864+152986640+152990096
3127.47+152944672+152943744+153073776+153372576+153815856+154335904+154857392
3134.22+155325616+155723296+156068016+156415296+156844000+157427744+158195616
3140.97+159098528+160031712+160882896+161598144+162197776+162752704+163331008
3147.72+163965424+164655984+165395792+166195456+167082240+168087760+169228000
3154.47+170483968+171808176+173134688+174414464+175637792+176832608+178038352
3161.22+179278208+180549136+181839936+183147744+184490016+185889488+187354928
3167.97+188872720+190409488+191928768+193409728+194856832+196301872+197780496
3174.72+199314544+200897632+202490560+204040816+205511440+206897728+208229520
3181.47+209548640+210882992+212240000+213603680+214950352+216260992+217526400
3188.22+218757408+219970128+221181712+222402064+223637584+224893824+226174384
3194.97+227465664+228728384+229908080+230962288+231898944+232774736+233663152
3201.72+234614272+235628528+236674432+237714400+238735408+239751616+240787456
3208.47+241856656+242953472+244058992+245152656+246225552+247286928+248353632
3215.23+249443072+250566160+251723312+252910656+254127968+255378112+256669216
3221.98+258014480+259435728+260958592+262602880+264359232+266176256+267974480
3228.73+269680928+271270720+272786720+274319040+275969504+277810080+279865248
3235.48+282118816+284531200+287054976+289638784+292238432+294820832+297369984
3242.23+299888288+302385120+304881984+307427104+310097472+312971936+316082144
3248.98+319374784+322731200+326016416+329141216+332099616+334968480+337868736
3255.73+340916032+344168064+347613344+351180160+354787264+358373792+361914880
3262.48+365407232+368850304+372229248+375511904+378662624+381673152+384592864
3269.23+387522464+390568864+393792320+397190432+400720832+404347904+408054112
3275.98+411824160+415631520+419448288+423274240+427128704+431032672+434986432
3282.73+438973184+442982016+447021952+451101696+455198272+459237952+463117152
3289.48+466746144+470079104+473112448+475858208+478302464+480402528+482092128
3296.23+483308416+483993376+484083264+483511136+482198784+480092448+477191264
3302.98+473567008+469335648+464588672+459333920+453517152+447111648+440196352
3309.73+432939296+425501696+417970048+410356832+402678752+394998944+387405216
3316.48+379959008+372670272+365523136+358510016+351654624+345002240+338602304
3323.24+332495168+326709088+321256608+316136992+311329184+306790336+302465312
3329.99+298310368+294309504+290461792+286756192+283147616+279578688+276020192
3336.74+272511360+269136704+265976848+263051200+260316240+257711728+255200432
3343.49+252781360+250465392+248236384+246049392+243856080+241636768+239417296
3350.24+237253872+235209568+233327392+231620864+230064256+228598832+227160672
3356.99+225703760+224224208+222753248+221326896+219971168+218683616+217435568
3363.74+216189424+214911728+213595488+212268880+210978976+209776160+208687952
3370.49+207721904+206857216+206054768+205265600+204446048+203572944+202646960
3377.24+201695520+200763680+199906848+199167584+198552384+198017040+197481024
3383.99+196869504+196151792+195358272+194562848+193843744+193239776+192725408
3390.74+192224928+191660064+191002976+190295040+189606480+188976032+188396912
3397.49+187848496+187330624+186873104+186502608+186218560+185986640+185750096
3404.24+185452576+185053808+184549792+183971920+183379472+182828544+182354512
3410.99+181956960+181613792+181290400+180960464+180620704+180296064+180021712
3417.74+179809648+179625984+179394592+179038992+178535824+177931360+177302496
3424.49+176700400+176124688+175543488+174944080+174348064+173795776+173298528
3431.25+172817968+172295840+171704240+171064560+170434656+169864224+169379040
3438.00+168981152+168651664+168348976+168024768+167642096+167202096+166725440
3444.75+166208640+165603456+164843792+163919552+162913952+161957504+161152480
3451.50+160527040+160047600+159648896+159260016+158834368+158358288+157846624
3458.25+157323728+156802080+156271312+155716480+155136656+154554480+153995760
3465.00+153459776+152913344+152325072+151698640+151082288+150529600+150065616
3471.75+149666368+149294912+148924640+148556160+148207984+147904384+147662768
3478.50+147474320+147283408+146995200+146525680+145864208+145088064+144300480
3485.25+143555296+142844112+142126016+141384832+140648032+139970688+139394592
3492.00+138921904+138511600+138100624+137633280+137089808+136510656+135976544
3498.75+135570480+135322480+135166080+134929376+134410768+133531872+132436608
3505.50+131384704+130551568+129929608+129374280+128713824+127858856+126851472
3512.25+125821112+124890328+124122560+123506520+122981224+122487696+122013192
3519.00+121598848+121288784+121069688+120847224+120502944+119960768+119238432
3525.75+118406664+117508128+116528328+115432552+114233952+113017136+111900544
3532.50+110971880+110239664+109630680+109015608+108277456+107392560+106456848
3539.26+105621312+105005568+104652440+104512064+104445576+104235880+103659800
3546.01+102628304+101298232+99974608+98883064+98047056+97327456+96535480
3552.76+95567888+94476272+93409488+92486064+91727672+91094584+90543960+90070704
3560.47+89720320+89568528+89676768+90031584+90468960+90605168+89904096+88119504
3568.19+85750040+83601552+82038008+80960184+80130384+79362456+78571952+77771760
3575.90+77032080+76419712+75948552+75589992+75316736+75143888+75130208+75337624
3583.62+75787632+76416704+77030408+77293952+76925160+76082704+75325568+75068592
3591.33+75344656+75920800+76432664+76521440+76031808+75148592+74230208+73499296
3599.05+72903360+72200384+71193840+69939936+68721376+67814656+67304352+67032092
3606.76+66648608+65786612+64335716+62574704+60920376+59640368+58828836+58492628
3614.48+58589468+59000812+59548996+60048444+60339132+60370676+60261508+60204136
3622.19+60310852+60607872+61108232+61826144+62710496+63490660+63538012+62200512
3629.91+59730520+57130532+54908932+52931736+50969540+48964060+47015924+45239164
3637.62+43666696+42265740+41003032+39885956+38969828+38345124+38117060+38394088
3645.34+39266088+40747236+42560500+43709460+42656916+39382516+35897360+33527990
3653.05+32266446+31668002+31274282+30708388+29799534+28670912+27588610+26716142
3660.77+26073502+25623292+25339000+25233802+25354816+25757670+26473118+27453290
3668.48+28489420+29184372+29236456+28878352+28668142+28937880+29628144+30276300
3676.20+30229720+29343486+28085290+26872960+25850112+25062596+24577364+24477330
3683.91+24816034+25590296+26755670+28254760+30009238+31807184+33193796+33751052
3691.63+33549512+32982716+32385500+31937510+31717532+31729386+31921040+32213642
3699.34+32548932+32896212+33227896+33490634+33633636+33675480+33721548+33919200
3707.06+34401672+35200196+36067412+36279016+34809556+31445510+27534286+24620150
3714.77+23229548+23204186+24252996+26127168+28612646+31496042+34556596+37568852
3722.49+40327468+42664244+44448976+45587812+46073556+46030564+45678048+45224956
3730.20+44826944+44582384+44535544+44576568+44300836+43083284+40693672+37690584
3737.92+34852784+32568816+30856558+29598012+28657092+27910874+27268904+26723960
3745.63+26388096+26395546+26771262+27371476+27783460+27284688+25457566+22943870
3753.35+20732422+19218070+18340300+17911548+17720136+17543190+17218820+16762440
3761.06+16344538+16112456+16094315+16231048+16438187+16649730+16826898+16917936
3768.78+16820784+16421898+15735852+14949806+14295897+13905216+13803424+13957959
3776.49+14308930+14744912+15096696+15197192+15023155+14736740+14537883+14511538
3784.21+14597756+14642133+14513086+14193840+13781270+13395246+13136401+13062219
3791.92+13194686+13547264+14116749+14888272+15812628+16796696+17739186+18564318
3799.64+19175544+19385862+19028662+18263492+17523030+17064562+16813882+16515138
3807.35+15952069+15162842+14404885+13923143+13832948+14150325+14841968+15821480
3815.07+16921628+17913514+18646810+19163594+19566810+19791970+19613552+18958606
3822.78+18128910+17464782+17044188+16764999+16504122+16216026+15951175+15808272
3830.50+15875581+16203400+16793810+17606006+18582712+19660384+20733500+21578602
3838.21+21871856+21421722+20380110+19076628+17750302+16517078+15477907+14745867
3845.93+14418858+14537300+15088628+16026290+17278946+18720746+20066950+20723078
3853.64+20083490+18513242+17026468+16059535+15558567+15426475+15622809+16124962
3861.36+16856846+17629502+18152106+18214890+17929030+17654718+17676704+18041088
3869.07+18561746+18896952+18755014+18110200+17149350+16088090+15134466+14474911
3876.79+14214812+14352783+14812140+15455953+16115990+16657332+17037672+17243424
3884.50+17208352+16882198+16371619+15926559+15743651+15846777+16088637+16201829
3892.22+15960591+15416188+14871335+14601711+14723434+15228328+16033963+17003086
3899.93+17975068+18803382+19344990+19411268+18833868+17663628+16247071+14975892
3907.65+14051730+13480298+13179217+13062219+13085811+13268457+13632821+14157972
3915.36+14744598+15227917+15450524+15382587+15158049+14969887+14936856+15056209
3923.08+15220882+15289629+15188255+14997713+14906582+15064666+15482432+16005169
3930.79+16362372+16320554+15862725+15204505+14602148+14186594+13957758+13864826
3938.51+13870711+13961344+14112260+14263727+14335743+14297238+14211421+14183877
3946.22+14261181+14392752+14464401+14387715+14171284+13900075+13663770+13500720
3953.94+13414923+13399985+13443672+13522240+13604646+13668424+13713941+13754341
3961.65+13796208+13830036+13845233+13836689+13814991+13792749+13786394+13813465
3969.37+13888208+14008254+14148028+14255659+14279265+14184677+13983786+13727383
3977.08+13487437+13315992+13228559+13205770+13220964+13258257+13311619+13364619
3984.80+13385656+13347164+13250047+13134130+13062219+13064483+13168463+13332161
3992.51+13484185+13555857+13513559+13377387+13212730+13091000+13062219
##END=
