##TITLE=Default
##JCAMP-DX=4.24
##DATA TYPE=INFRARED SPECTRUM
##DATE=19/9/2016
##SAMPLING PROCEDURE=ATR
##ORIGIN=Default
##XUNITS=1/CM
##YUNITS=ABSORBANCE
##RESOLUTION=4
##FIRSTX=599.84104
##LASTX=3998.2974
##DELTAX=0.96437467
##MAXY=2
##MINY=0
##XFACTOR=1
##YFACTOR=1.8626452e-009
##NPOINTS=3525
##FIRSTY=0.049652051
##XYDATA=(X++(Y..Y))
599.84+26656742+26782412+27247730+28067270+29211038+30402068+31019216+30215864
607.56+27412374+22720992+17068134+11807631+8146469+6713613+7437329+9735606
615.27+12825728+16060778+19104712+21917102+24647092+27509120+30787518+34841572
622.99+39996352+46450184+54179824+62974208+72499520+82346064+92034336+101020296
630.70+108745408+114765224+118944104+121553640+123250616+124891112+127316136
637.45+131138296+136616656+143566144+151414704+159431856+167100704+174388768
644.20+181719680+189658432+198516448+208109312+217804256+226840736+234767280
650.95+241685248+248110000+254588352+261375120+268399184+275400416+282084704
657.70+288207136+293631168+298379520+302624672+306667104+311045504+316770688
664.45+325522720+339602720+360972224+387989216+411579456+421393888+418467840
671.20+411636416+407301664+407547136+411906112+418797440+426502848+433829728
677.96+440223616+445512000+449664384+452732000+454834080+456138144+456802976
684.71+456927104+456501120+455422528+453562368+450857472+447351232+443171168
691.46+438532480+433760672+429283392+425529984+422788832+421133760+420474848
698.21+420666624+421587008+423122656+425136576+427480384+430068640+432993376
704.96+436532640+441073376+446933408+454242880+462985792+473168736+484977024
711.71+498799616+515100992+534232672+556348543+581384575+609018367+638436479
718.46+667991359+695087359+716628863+729997695+733872959+728290303+714122431
725.21+692539839+664789247+632114175+595657407+556345791+514876672+471827200
731.96+427735936+383142496+338588448+294679648+252148528+211852416+174669792
738.71+141356944+112441976+88167864+68480488+53067128+41421996+32927402
745.46+26917940+22739752+19821370+17731624+16201754+15092050+14325332+13825067
753.18+13472608+13126861+12660431+12026901+11269197+10492160+9803659+9281759
760.89+8978248+8930066+9130886+9497884+9884408+10149712+10225053+10144533
768.61+10003289+9901057+9902745+10043299+10338524+10795709+11411516+12151689
776.32+12947524+13706225+14358744+14913174+15463806+16161974+17156556+18559874
784.04+20441014+22828864+25709496+29010604+32595810+36268596+39738260+42599100
791.75+44347896+44498460+42765892+39235580+34391368+28976960+23749064+19244960
799.47+15682424+13006561+11047318+9666749+8829983+8547570+8760281+9247464
807.18+9659230+9674191+9175921+8326381+7437329+6457094+5747418+5221222+4802167
815.86+4530151+4514768+4815479+5366418+6033475+6720595+7437329+8071435+8932521
824.54+10085534+11550344+13311492+15334299+17553552+19870588+22177150+24411288
832.26+26604494+28890572+31439306+34361752+37653768+41212812+44923844+48720268
839.97+52614700+56657744+60871420+65173592+69310696+72851064+75265224+76097424
847.69+75165944+72663360+69092616+65054940+61016080+57204236+53643924+50300200
855.40+47182188+44378468+42033660+40305196+39323656+39176464+39904096+41556796
863.12+44279268+48398496+54443248+63062668+74783720+89607088+106539392
869.87+123367840+137010320+144513664+144251920+136614048+123701472+108279320
876.62+92657128+78144128+65147124+53606828+43364896+34314568+26408930+19617904
884.33+13919934+9290352+5690145+3050687+1284936+298217+0+298409+1089142+2253087
893.98+3678002+5298058+7101710+9115695+11346495+13753639+16265049+18796828
901.69+21231132+23369100+24901808+25477106+24833142+22937386+20039338+16614862
909.41+13231433+10397753+8439124+7474348+7437329+7932453+9021634+10563856
917.12+12471235+14700156+17237728+20085178+23241626+26713248+30535946+34784412
924.84+39569624+45005056+51178316+58114156+65738608+73824200+81914696+89291688
932.55+95040600+98227280+98150248+94574248+87860792+78884456+68827888+58875772
940.27+49954488+42578808+36833268+32489168+29182844+26599238+24570332+23079552
947.98+22177380+21886566+22147574+22837532+23823868+25021992+26406628+27997416
955.70+29826538+31915748+34275328+36900592+39776584+42876832+46172952+49638896
963.41+53250304+56949824+60634004+64143792+67295256+69915920+71865264+73033392
971.13+73338936+72737816+71271208+69080376+66391012+63473896+60579648+57919472
978.84+55655912+53906812+52740332+52168756+52139140+52554780+53292652+54221064
986.56+55222012+56213372+57167792+58128120+59190716+60466752+62043076+63957936
994.27+66205536+68759184+71593744+74697448+78080488+81777136+85851864+90383664
1001.99+95466944+101211448+107752056+115247152+123839264+133606512+144564064
1008.74+156746032+170326464+185631920+202961360+222218720+242563360+262309936
1015.49+279218080+291099072+296486368+295055392+287597216+275589792+260605216
1022.24+243901168+226354896+208702720+191816528+176798320+164760112+156492768
1028.99+152206288+151518208+153647808+157667024+162700672+168034320+173171072
1035.74+177846736+181991696+185652592+188878512+191646512+193852464+195368064
1042.49+196106160+196067680+195348224+194120912+192602544+191029872+189618192
1049.24+188541472+187916080+187800144+188210464+189132496+190546944+192438016
1055.99+194805616+197671632+201072928+205033424+209537104+214508672+219828336
1062.74+225372176+231045168+236806160+242664224+248676640+254938928+261582416
1069.49+268742016+276553120+285140384+294632352+305132288+316664096+329116576
1076.24+342253088+355786496+369452672+383039168+396341760+409118304+421112224
1082.99+432133184+442139616+451247744+459660512+467562592+475058400+482177312
1089.74+488900032+495171712+500890816+505913728+510093152+513320032+515532576
1096.49+516664576+516628224+515307712+512614336+508525344+503090432+496415584
1103.24+488665344+480058880+470891488+461539232+452444416+444073184+436846816
1110.00+431081184+426951936+424487968+423574816+423954272+425240032+426962592
1116.75+428638080+429841440+430246272+429644160+427941792+425137504+421280960
1123.50+416418560+410572608+403754464+396004576+387428416+378206080+368584096
1130.25+358860960+349349120+340311936+331890400+324054336+316616352+309285568
1137.00+301756896+293796416+285324224+276466496+267533216+258927040+250992496
1143.75+243889280+237549616+231730064+226143360+220567456+214898352+209157056
1150.50+203452880+197929696+192731328+187979392+183780672+180241056+177457152
1157.25+175501344+174390160+174085440+174532176+175697872+177608896+180352336
1164.00+184052176+188833952+194792192+201958016+210269040+219562640+229593040
1170.75+240062080+250652736+261034928+270866976+279797888+287473984+293566432
1177.50+297811584+300068192+300388928+299072064+296637472+293735040+291009568
1184.25+289016192+288191680+288887424+291407680+296013568+302886944+312099584
1191.00+323562560+336984544+351798368+367107200+381688704+394117024+403027872
1197.75+407467328+407176992+402694368+395182464+386102240+376852640+368506208
1204.50+361714752+356751680+353644992+352310336+352634016+354500736+357798784
1211.25+362412096+368225664+375140896+383092704+392055168+402023488+412994784
1218.01+424936448+437778144+451366048+465418208+479486144+493028544+505599680
1224.76+517093184+527880096+538717247+550468735+563795967+578963903+595833215
1231.51+613970047+632790719+651689471+670101439+687532607+703558079+717834687
1238.26+730117375+740279871+748310847+754283967+758334399+760638527+761407679
1245.01+760876543+759282943+756860287+753836351+750433151+746863743+743315199
1251.76+739960255+736961407+734473023+732620863+731467711+730963903+730935551
1258.51+731093055+731098943+730650751+729556607+727734079+725166015+721856767
1265.26+717835327+713156671+707881343+702012543+695469567+688118207+679838271
1272.01+670561535+660248895+648829375+636173119+622138687+606657279+589817535
1278.76+571881919+553243071+534357472+515693216+497675680+480613952+464635520
1285.51+449676288+435571648+422184096+409484000+397521760+386333664+375876320
1292.26+366035488+356677824+347696672+339035552+330695936+322727744+315198112
1299.01+308139424+301519232+295255296+289264384+283500032+277942496+272555136
1305.76+267261920+261981760+256701520+251500240+246502880+241784080+237331936
1312.51+233093728+229070624+225341232+221993632+219032000+216358032+213857424
1319.26+211506800+209418416+207789984+206807984+206608176+207284112+208910176
1326.02+211566768+215389216+220590960+227457888+236274912+247215792+260243856
1332.77+275070496+291171744+307868544+324385824+339783072+352732384+361451136
1339.52+364371904+361352384+353880832+343840448+332484864+320483744+308376864
1346.27+296812736+286432320+277679040+270746496+265669232+262369264+260654128
1353.02+260231904+260785200+262067248+263949056+266431056+269597088+273560800
1359.77+278423392+284219008+290807488+297784384+304648512+311158528+317417408
1366.52+323568192+329512544+334864896+339166912+342136128+343624224+343351296
1373.27+340881728+336126528+329885248+323483360+317802944+312976064+308796064
1380.02+305147648+302137792+299959808+298680448+298119968+297826624+297132256
1386.77+295405408+292552608+289263040+286468416+284669056+283884064+283927712
1393.52+284630752+285925696+287852800+290551744+294252320+299200736+305508000
1400.27+313123488+322086944+332781600+345823488+361441696+378689536+395501952
1407.02+409997024+421482528+430107808+436154400+439876384+441693504+442190016
1413.77+441804256+440453952+437146176+429613664+414816992+392039840+366343968
1420.52+344842784+329967168+319872608+312221856+306037216+301574400+299336704
1427.27+299409952+301534048+305371296+310535360+316519232+322829216+329207776
1434.03+335610784+341938400+347708960+352150944+354959168+356638816+357847360
1440.78+358926944+360021376+361275648+362860992+364894944+367369696+370183808
1447.53+373243488+376582336+380368928+384781280+389886720+395616608+401838432
1454.28+408441664+415369824+422382080+428657728+433465824+437518816+441899008
1461.03+446854880+451909312+455903968+457024640+453769952+446827840+439089696
1467.78+433152000+430004320+429726336+432232576+437050976+442078080+443280704
1474.53+437936992+427072992+413275200+398474304+383533248+368561856+353536288
1481.28+338998912+326241312+316621408+310714496+308208384+308420864+310810848
1488.03+315111104+320976480+327554464+333977792+340214528+346886848+354786752
1494.78+364769632+377665184+393718496+411832736+430115328+447545568+464183232
1501.53+480242592+495739488+510749280+525728256+541654399+559135871+575405951
1508.28+585841343+591959359+597848447+605280447+614477247+625298495+637849535
1515.03+652630079+669939903+688856703+707417215+724735615+742423231+763033215
1521.78+786553663+809244927+828105023+843867135+858455999+872353343+884696319
1528.53+894850303+903054911+909566783+913734655+914035903+909695231+902707263
1535.28+896464703+892461631+889793727+885905855+876194431+854939327+823580287
1542.04+793380927+769250303+748919487+731361407+716867327+704909055+693897343
1548.79+682128255+668911871+655049599+642012863+630576063+620573631+611705663
1555.54+603897407+596070591+583348735+557707711+523486880+498529600+485852224
1562.29+478432800+471431296+463218624+454101632+445002176+436108288+426369760
1569.04+414638976+401851648+390958336+383769856+379629600+376603616+372402272
1575.79+365165760+355330176+345799488+338437728+332837216+328007776+323425376
1582.54+319106848+315366176+312543776+310848128+310343584+310997504+312727296
1589.29+315436064+319039136+323488448+328790464+335010304+342228256+350461504
1596.04+359611488+369563616+380335808+392143808+405300480+420025024+436262144
1602.79+453637024+471656160+490032064+508852320+528464000+549188863+571021759
1609.54+593519359+615992703+637876351+659068799+680193023+702865599+729527423
1616.29+761408511+795094463+824471807+847551807+866938111+886073855+907172863
1623.04+930205887+952872767+972843775+989981311+1005599551+1020581119
1628.83+1034624575+1046885119+1056955647+1065006271+1071030015+1073741823
1634.62+1069590847+1054392511+1030274367+1006292607+987024831+970713727
1640.40+955002047+939259327+924055231+909767679+895107839+876106815+847658687
1647.15+811097855+778031551+756749375+744819263+734953407+717352063+682516095
1653.90+637566847+603683647+584591103+572363071+561729855+550857663+539082751
1660.65+525497184+508945216+489678048+470608288+455113440+444054400+435939488
1667.40+428372352+418914112+406257824+392003680+379462240+369872256+361951488
1674.15+353975168+345355584+337059168+330494848+326107360+323357472+321457184
1680.91+319776096+317633152+313757568+306737920+297696896+290339232+286201504
1687.66+284111616+282687968+281467232+280810688+281278144+283166560+286641280
1694.41+292026304+299663040+309201504+319520416+330340768+343076192+358506208
1701.16+374793344+389872160+404107488+419477632+437352480+456789856+474948992
1707.91+489727424+501180384+510291936+517601216+523055936+526472000+527683936
1714.66+525854528+518337120+501581600+476954880+452591456+433950272+420140032
1721.41+408211968+395900864+382238848+367622080+353245216+340011968+327890112
1728.16+316272512+304746336+293395680+282116672+269406112+252412672+230498368
1734.91+208559488+191662288+179546176+169109696+157724048+144500656+130380928
1741.66+116997608+105176264+94760664+85414960+77079368+69730440+63001732
1748.41+56142608+48517260+40386864+32942114+27201524+23306274+20807350+19122800
1756.13+17766878+16497228+15332602+14368564+13529180+12544044+11204694+9659048
1763.84+8331905+7558732+7437329+7753461+8555520+9698665+10984119+12089334
1771.56+12515590+11841053+10244041+8461114+7111646+6404818+6274976+6525760
1779.27+6887714+7100981+7027415+6721180+6339153+6001233+5761726+5675520+5858856
1787.95+6459597+7555308+9052514+10584935+11562792+11602534+10957410+10210198
1795.67+9729047+9594601+9760819+10121977+10480680+10571873+10219941+9518810
1803.38+8777083+8294743+8212641+8513084+9073536+9723705+10274452+10542326
1811.10+10394397+9828593+9007009+8182662+7605081+7437329+7566366+8042175
1818.81+8701071+9426072+10188946+11003836+11853127+12664507+13363481+13946441
1826.53+14485431+14999994+15341904+15207315+14410272+13157732+11913977+11027591
1834.24+10587774+10490289+10535450+10539305+10459764+10421518+10621800+11182655
1841.96+12071851+13042764+13684101+13676534+13079073+12193042+11236571+10270520
1849.67+9323965+8477283+7844425+7496722+7437329+7603096+7921175+8318834+8726015
1858.35+9076758+9319161+9425775+9416971+9368780+9432210+9794126+10610541
1866.06+11885216+13338019+14358964+14340887+13260156+11709321+10319842+9403056
1873.78+9010519+9053857+9375263+9781169+10111591+10289384+10338160+10331245
1881.49+10328138+10332626+10328167+10342447+10477323+10846096+11455602+12127416
1889.21+12571578+12613573+12374307+12168750+12223789+12529371+12882790+13056594
1896.92+12956453+12661198+12320573+12067209+11974155+12056353+12287190+12623471
1904.64+13039139+13531751+14102436+14695198+15183368+15430393+15390555+15171275
1912.35+14983806+15030165+15405785+16066148+16824524+17445654+17791544+17934496
1920.07+18035278+18140426+18098930+17716010+16976806+16115902+15439235+15111202
1927.78+15127918+15409458+15882169+16487092+17144866+17743152+18186430+18452368
1935.50+18614374+18812854+19193652+19867040+20852732+22049932+23225928+24080224
1943.21+24408592+24232992+23738424+23114282+22488862+21963462+21655922+21645690
1950.93+21904726+22260706+22464498+22348614+21937864+21468346+21240882+21435650
1958.64+22006938+22748498+23415814+23837544+23932716+23671350+23063866+22216044
1966.36+21361032+20814036+20806536+21345606+22242494+23248756+24171614+24936640
1974.07+25600436+26324008+27253748+28403970+29597012+30550600+31032422+30980684
1981.79+30511314+29842100+29199170+28748546+28588874+28747918+29184282+29765482
1989.50+30288122+30531780+30343662+29729314+28825762+27802178+26755948+25728768
1997.22+24762026+23946652+23367796+23034344+22833510+22588854+22208372+21793618
2004.93+21633950+22004286+22921888+24059716+24949390+25307998+25209214+24944542
2012.65+24774144+24778060+24897478+25074648+25288322+25539874+25801246+26039746
2020.36+26248826+26446202+26617974+26700914+26619004+26348540+25942410+25515348
2028.08+25171144+24993380+25058868+25485008+26389606+27787672+29479810+31078470
2035.79+32187142+32620208+32446500+31882140+31140288+30387668+29768226+29424238
2043.51+29466868+29972474+30990288+32529950+34436944+36268836+37382280+37285944
2051.22+35961892+33921796+31890838+30414348+29641428+29408694+29486220+29760860
2058.94+30212762+30781682+31301036+31572516+31520508+31269138+31073684+31145774
2066.65+31526602+32095950+32676004+33138272+33425388+33528070+33473858+33332882
2074.37+33201720+33173976+33282930+33487648+33702212+33853200+33914400+33895660
2082.08+33810880+33665516+33463702+33249332+33082720+32980772+32857278+32552108
2089.80+31930552+31030932+30092518+29469408+29443890+30083270+31197202+32425158
2097.51+33403514+33930200+34026056+33879616+33708900+33630944+33618756+33570276
2105.23+33411852+33172682+32958340+32881234+32985524+33227868+33501592+33684740
2112.94+33679916+33446742+33006248+32445240+31877488+31391888+31010230+30675782
2120.66+30294196+29798148+29179780+28481390+27728344+26893984+25920338+24781896
2128.37+23545498+22369592+21452460+20958522+20968178+21469978+22362314+23458150
2136.09+24522664+25333358+25772178+25868148+25777572+25694904+25758748+26010768
2143.80+26393796+26812554+27141998+27270406+27107890+26617158+25817108+24773808
2151.52+23534790+22111630+20554836+19140806+18495470+19485330+22738380+28065574
2159.23+34279952+39772444+43434124+45170784+45615012+45484048+45114604+44458340
2166.95+43326204+41666380+39652332+37617372+35921756+34816384+34365748+34432132
2174.66+34733160+34990816+35037012+34915952+34825176+35001792+35568908+36447500
2182.38+37392052+38149764+38575260+38668448+38486120+38093820+37573516+37053008
2190.09+36689240+36576868+36667564+36813400+36869980+36799636+36680996+36629764
2197.81+36727552+36983936+37348152+37728772+38015788+38113064+37999288+37759668
2205.52+37564008+37562172+37777644+38072840+38226908+38081460+37636548+37048660
2213.24+36535348+36266888+36295632+36560432+36907128+37165688+37208624+36997164
2220.95+36598232+36138752+35748908+35527976+35521244+35727872+36088148+36509300
2228.67+36907288+37247444+37546144+37823836+38061680+38198532+38192328+38064368
2236.38+37914312+37862800+37979164+38254144+38597668+38890152+39041764+39049216
2244.10+38999596+39035440+39271160+39722888+40289636+40804008+41121760+41194488
2251.81+41117248+41082628+41300144+41891384+42829460+43941572+44997612+45800696
2259.53+46269456+46453824+46497096+46586028+46869968+47398180+48097988+48805276
2267.24+49340268+49604672+49606628+49448224+49258076+49133892+49115052+49186520
2274.96+49304776+49416744+49475892+49458428+49362964+49227288+49132652+49198372
2282.67+49571380+50364808+51608696+53219340+55030848+56881712+58705088+60556084
2290.39+62569472+64873148+67514816+70433224+73488312+76536392+79501672+82402752
2298.10+85323072+88337464+91479544+94784968+98354768+102395600+107157304
2304.86+112806792+119333240+126544736+134116664+141682960+148888224+155451088
2311.61+161249744+166411856+171366720+176751024+183225888+191264592+201034352
2318.36+212382704+224878048+237854592+250485040+261926176+271605952+279479552
2325.11+286029760+291988928+297966720+304187040+310419520+316120736+320743264
2331.86+324098144+326506496+328603040+330958432+333840704+337274464+341224768
2338.61+345635520+350236928+354271264+356319200+354297440+345885376+330005568
2345.36+308665408+286791104+269602656+260398448+260404928+269571296+287045632
2352.11+311130048+339245056+368452512+396402624+421636608+443088480+459772992
2358.86+471163104+477433792+479106528+476503296+469699488+458760800+443946368
2365.61+425758976+404903264+382163648+358259264+333748352+309056960+284543392
2372.36+260522352+237282496+215084896+194146320+174590656+156406352+139458176
2379.11+123572176+108631104+94629856+81680432+69971984+59714752+51066832
2385.86+44076588+38657928+34617032+31721284+29762548+28576224+28012242+27887954
2393.58+27995330+28155246+28275154+28353136+28433570+28535514+28636096+28693382
2401.29+28701668+28707232+28783852+28985726+29307142+29675422+29980544+30120916
2409.01+30057846+29842814+29591032+29426406+29419160+29560608+29797630+30068712
2416.72+30333814+30564344+30735496+30829854+30856390+30855680+30881664+30969760
2424.44+31119138+31293310+31448144+31556946+31627064+31679752+31731080+31764966
2432.15+31757170+31700616+31634530+31628646+31731186+31941882+32204342+32466548
2439.87+32706428+32932964+33157058+33375170+33581848+33784704+34008568+34262968
2447.58+34526368+34749448+34892660+34950004+34942744+34897860+34829536+34750312
2455.30+34687180+34679104+34753068+34900912+35072480+35206144+35258592+35224616
2463.01+35137472+35042432+34987472+35000108+35082268+35216480+35373876+35522272
2470.73+35633056+35684680+35670596+35606632+35529304+35481424+35495976+35585488
2478.44+35739624+35930280+36116868+36262832+36355352+36416260+36492160+36625584
2486.16+36830456+37082796+37348776+37600316+37821592+37996796+38108440+38141260
2493.87+38098256+38004796+37893604+37806152+37772964+37830604+38004436+38291184
2501.59+38635236+38943580+39125624+39146996+39054324+38952388+38942652+39063324
2509.30+39281388+39505728+39650412+39666324+39579112+39470332+39445324+39573640
2517.02+39850368+40208716+40564620+40862152+41082748+41214372+41234656+41135124
2524.73+40970912+40842468+40856464+41052212+41381156+41751880+42086060+42333996
2532.45+42479304+42529612+42528048+42546972+42653236+42852328+43079280+43234972
2540.16+43252800+43146128+42993048+42886920+42887276+42993556+43158252+43321592
2547.88+43452184+43558468+43676760+43836028+44028604+44217644+44368184+44467388
2555.59+44531912+44583872+44631188+44679328+44726100+44782980+44855964+44942612
2563.31+45028444+45111540+45208572+45356408+45579356+45859132+46130180+46312740
2571.02+46358152+46280368+46147944+46045564+46031708+46124388+46305292+46537568
2578.74+46782692+47013356+47215332+47391908+47550184+47696428+47823568+47920372
2586.45+47992304+48052212+48114856+48176132+48216096+48218072+48184244+48130748
2594.17+48074240+48017744+47962876+47920312+47913820+47958420+48040196+48116228
2601.88+48138152+48085744+47984980+47898152+47881544+47958940+48104104+48269760
2609.60+48404004+48473488+48459336+48358832+48191656+48004272+47858148+47801932
2617.31+47848724+47976660+48137940+48288840+48389468+48414668+48363632+48262320
2625.03+48153352+48078556+48049652+48046712+48028472+47964600+47857828+47742872
2632.74+47668356+47664320+47722036+47808444+47886104+47940536+47974204+47999688
2640.46+48018604+48032872+48040872+48048856+48059576+48071940+48075832+48057320
2648.17+48007384+47933412+47864628+47834916+47857656+47908536+47927736+47859224
2655.89+47678432+47409420+47100276+46792788+46499524+46220756+45958396+45727716
2663.60+45551392+45440068+45388536+45374684+45372308+45365284+45344608+45310828
2671.32+45273772+45253100+45278296+45366832+45509980+45676608+45829592+45959640
2679.03+46086424+46243244+46451956+46704920+46974280+47226180+47436564+47604624
2686.75+47741552+47872196+48011580+48166548+48329712+48486048+48613972+48691912
2694.46+48706180+48670732+48630904+48651740+48787864+49049688+49397040+49754812
2702.18+50055752+50262164+50378372+50433104+50465960+50502916+50566932+50679608
2709.89+50855956+51099300+51399768+51739632+52109324+52499272+52895820+53265596
2717.61+53573592+53799560+53956872+54082476+54214360+54377984+54584556+54842292
2725.32+55165984+55573140+56059960+56596904+57130636+57610224+58005820+58316296
2733.04+58560820+58766192+58962540+59178896+59452752+59802768+60222632+60676228
2740.75+61130152+61565476+61978932+62372688+62723724+62986820+63127432+63143352
2748.47+63080340+63018704+63040656+63200712+63497816+63883744+64286692+64650200
2756.18+64955900+65224860+65487816+65756812+66025556+66286348+66551012+66841460
2763.90+67172784+67535688+67895048+68208624+68448408+68611664+68714832+68793584
2771.61+68896208+69075384+69373384+69791880+70291112+70800256+71257320+71649616
2779.33+72009008+72378856+72780040+73190600+73571512+73896160+74175240+74441680
2787.04+74730400+75069408+75476584+75960192+76512552+77116376+77749416+78399048
2794.76+79060576+79730192+80399896+81055384+81692256+82313264+82927200+83537632
2802.47+84145384+84752952+85367208+85991992+86620184+87242112+87855584+88484840
2810.19+89172336+89957784+90849768+91813648+92790672+93738112+94646848+95546088
2817.90+96471752+97445888+98456424+99469936+100447208+101364736+102226304
2824.65+103055456+103885832+104746248+105664048+106662264+107757288+108950008
2831.40+110231064+111595584+113068000+114701896+116569288+118742024+121282128
2838.15+124247232+127693128+131667712+136207456+141330816+147045632+153351936
2844.91+160235424+167670960+175627856+184052304+192847360+201844544+210808208
2851.66+219468144+227575760+234927904+241379760+246826320+251192496+254437344
2858.41+256563360+257618128+257688752+256897936+255399104+253379104+251049136
2865.16+248624768+246283648+244135696+242196976+240415568+238691568+236912688
2871.91+234972016+232772976+230232912+227287376+223893968+220056864+215839264
2878.66+211370800+206832176+202424752+198337360+194719168+191668288+189222128
2885.41+187369008+186064288+185266320+184962208+185161984+185882880+187114960
2892.16+188823776+190954016+193455792+196301536+199492736+203046800+206973072
2898.91+211253840+215834848+220640992+225598544+230647152+235729920+240771392
2905.66+245670176+250320064+254648560+258656752+262429632+266120288+269894848
2912.41+273885056+278160384+282734656+287591200+292712800+298083264+303677184
2919.16+309452608+315342976+321280768+327214016+333106144+338920384+344595168
2925.91+350046752+355177120+359901856+364141408+367791168+370693184+372640032
2932.66+373419520+372881888+370978432+367772064+363402432+358059296+351950656
2939.41+345299392+338336128+331275552+324277248+317399232+310589696+303715424
2946.16+296626944+289225952+281497056+273507104+265397600+257363760+249619904
2952.92+242359248+235705520+229691584+224276272+219379664+214906576+210764656
2959.67+206866640+203135104+199506352+195930816+192353888+188716480+184966688
2966.42+181090144+177122320+173123792+169146240+165195808+161242144+157247552
2973.17+153207360+149163872+145196288+141388864+137805520+134489664+131452368
2979.92+128689760+126175752+123863312+121690512+119598392+117547160+115525992
2986.67+113551144+111653592+109869744+108235992+106787568+105542488+104492616
2993.42+103605456+102842800+102193808+101681904+101337696+101173832+101160216
3000.17+101244360+101378200+101528632+101682920+101833632+101971632+102087552
3006.92+102170600+102213872+102220128+102213968+102245640+102373432+102629952
3013.67+103001400+103430912+103850792+104225368+104581480+104998144+105547232
3020.42+106244280+107027968+107807944+108528000+109206128+109907048+110685832
3027.17+111552216+112474656+113420024+114365544+115309056+116265792+117280072
3033.92+118411024+119686120+121062824+122432736+123688168+124801520+125852688
3040.67+126975184+128276576+129792856+131508424+133396496+135435872+137591696
3047.42+139785040+141913104+143899440+145727424+147442032+149102320+150740288
3054.17+152347600+153899856+155367712+156718592+157922240+158966800+159871392
3060.93+160681056+161426224+162080816+162581552+162878528+162998352+163047872
3067.68+163153120+163381840+163712752+164068336+164357280+164522208+164557472
3074.43+164498096+164399792+164304016+164219168+164114128+163952304+163710384
3081.18+163387296+162992576+162523440+161979920+161370432+160717952+160039248
3087.93+159346128+158656480+158024800+157519872+157177136+156947920+156698608
3094.68+156276288+155586016+154648592+153580368+152536976+151644592+150941376
3101.43+150367792+149785904+149051760+148094528+146945360+145728192+144600000
3108.18+143677744+142997024+142495536+142056240+141563504+140953296+140245152
3114.93+139508432+138825856+138255840+137818368+137505920+137307008+137216928
3121.68+137246480+137403536+137670480+137984208+138248432+138393520+138431168
3128.43+138459072+138610576+138959984+139473424+140024208+140483456+140789008
3135.18+140970928+141109424+141286608+141562416+141982512+142574544+143327440
3141.93+144174624+145009456+145741808+146342128+146849104+147330464+147842304
3148.68+148411088+149040480+149736912+150517184+151408128+152434352+153585664
3155.43+154814624+156046976+157216528+158307808+159346496+160377008+161429328
3162.18+162519616+163673184+164926400+166320288+167860544+169504160+171187088
3168.94+172850416+174460240+176011088+177509408+178979312+180448288+181932352
3175.69+183417168+184849888+186177296+187388864+188536048+189707440+190967536
3182.44+192329392+193757280+195194400+196587664+197907488+199150400+200345120
3189.19+201527696+202719920+203918112+205107824+206290256+207490208+208735168
3195.94+210010688+211264224+212415152+213413808+214263536+215015152+215738032
3202.69+216491920+217309328+218199152+219164768+220216160+221350336+222542064
3209.44+223729808+224842112+225829312+226691808+227480096+228278464+229184592
3216.19+230274944+231559584+232981600+234450096+235894640+237307472+238722144
3222.94+240176288+241678992+243232624+244842352+246516800+248235456+249945376
3229.69+251597456+253189296+254772560+256433504+258252544+260289600+262570448
3236.44+265081744+267771392+270546048+273325024+276053728+278722048+281343456
3243.19+283930400+286499008+289088096+291771328+294633952+297734816+301051872
3249.94+304485152+307892160+311161472+314277760+317331936+320470112+323809216
3256.69+327372448+331097376+334887968+338673600+342425056+346137120+349792224
3263.44+353361184+356816128+360146560+363365344+366502112+369611424+372773024
3270.19+376083008+379623808+383431584+387491136+391738368+396086528+400444576
3276.95+404742144+408963392+413157536+417408000+421772832+426244800+430764800
3283.70+435280192+439788256+444317760+448874464+453401536+457800448+461983232
3290.45+465908928+469560608+472917248+475924160+478514656+480622784+482196224
3297.20+483167360+483452064+482960032+481613696+479377152+476281280+472427072
3303.95+467939168+462893472+457259808+450938176+443865920+436113312+427864256
3310.70+419324416+410651616+401958560+393354208+384947488+376785760+368816096
3317.45+360937664+353088480+345317856+337756160+330533952+323711648+317275232
3324.20+311175392+305372064+299847072+294578688+289528544+284650816+279938656
3330.95+275431648+271194272+267245200+263518144+259888848+256256816+252621456
3337.70+249077152+245730304+242608304+239646144+236763552+233939952+231236032
3344.45+228724176+226404384+224190976+221967072+219680000+217368896+215129760
3351.20+213064256+211215136+209567440+208057920+206596672+205115840+203587552
3357.95+202034368+200498144+199005264+197558320+196134896+194710816+193279920
3364.70+191849728+190451536+189130032+187918304+186830336+185858720+184993008
3371.45+184215376+183494416+182784192+182032816+181209712+180312048+179370560
3378.20+178437648+177584080+176871200+176316320+175864208+175403408+174826304
3384.96+174086720+173223632+172332704+171515904+170841024+170315776+169902080
3391.71+169534368+169155184+168737424+168275728+167755328+167152096+166463632
3398.46+165734144+165048128+164485312+164074144+163786384+163551456+163298384
3405.21+162982960+162601872+162179152+161749216+161334688+160952352+160616160
3411.96+160354880+160194784+160141712+160183632+160293472+160439344+160582176
3418.71+160667984+160627744+160404208+159987040+159427712+158798048+158140832
3425.46+157457200+156730656+155980528+155281328+154722064+154337536+154068576
3432.21+153808560+153479360+153062064+152598176+152120416+151650528+151197136
3438.96+150766672+150357136+149958544+149563856+149194320+148874960+148575424
3445.71+148173920+147507472+146491296+145222192+143927280+142828432+142026464
3452.46+141501776+141158528+140885696+140606480+140298352+139968288+139625984
3459.21+139252320+138796352+138205056+137455952+136593568+135707776+134888800
3465.96+134175528+133564048+133029560+132550400+132114048+131711888+131337528
3472.71+131000936+130719608+130506584+130344344+130208472+130088992+129976448
3479.46+129828936+129547976+129026216+128245448+127325304+126439496+125690768
3486.21+125056672+124438192+123758264+123032472+122366624+121881472+121625416
3492.97+121539440+121474776+121269136+120840072+120262336+119733408+119457296
3499.72+119518336+119803640+120016944+119805040+118987208+117721520+116374312
3506.47+115242120+114395008+113715576+113013072+112162248+111172608+110162768
3513.22+109268312+108573688+108085136+107742984+107465720+107211120+107000688
3519.97+106885232+106873816+106887264+106792248+106471712+105903952+105154984
3526.72+104303528+103383000+102385464+101308488+100192104+99121184+98183584
3533.47+97426856+96815672+96221384+95485096+94534528+93480136+92561088+92013872
3541.18+91964040+92363720+92989328+93463672+93376120+92511312+91042688+89433256
3548.90+88075032+87080208+86297152+85465888+84405472+83156168+81937128+80964568
3556.61+80322264+79973304+79818312+79770032+79812288+80021328+80528056+81417368
3564.33+82571712+83506160+83358184+81490096+78385872+75270392+72907224+71314048
3572.04+70189768+69229432+68258632+67266984+66373748+65720220+65357152+65230072
3579.76+65231224+65301824+65489992+65927544+66748024+67972144+69376672+70394832
3587.47+70367504+69281840+67954872+67189280+67215584+67821256+68586504+69067016
3595.19+69018368+68531368+67889880+67269552+66600348+65680532+64409096+62960956
3602.90+61709984+60960796+60777880+60935808+60968116+60379364+59011748+57245852
3610.62+55660424+54591544+54047844+53881600+53961320+54222928+54622284+55040484
3618.33+55269964+55136948+54734196+54394200+54400848+54865932+55798880+57159592
3626.05+58813060+60341244+60848704+59399692+56307652+52995032+50254548+47970764
3633.76+45836760+43726644+41707004+39889696+38326092+36994756+35859076+34902332
3641.48+34158620+33717680+33723544+34346408+35749744+38009244+40826072+42887384
3649.19+41949004+37652580+32660966+28991398+26819752+25639866+24887466+24089158
3656.91+23013172+21755276+20586234+19663440+18978898+18472180+18124550+18002240
3664.62+18233164+18937474+20170056+21855000+23695190+25148200+25801006+25945876
3672.34+26291512+27214398+28490952+29289550+28649354+26607578+24094676+21779990
3680.05+19886948+18521034+17814540+17860732+18655286+20112548+22136532+24653518
3687.77+27526374+30281466+32002622+32079832+30962976+29528078+28317274+27493508
3695.48+27046824+26909084+27009796+27292622+27728582+28266220+28793082+29148938
3703.20+29248066+29178840+29154892+29414250+30139440+31367582+32766440+33384970
3710.91+31892684+28004690+23414476+20035170+18472482+18483248+19689524+21805932
3718.63+24621156+27930806+31502990+35071488+38346716+41036648+42885696+43747072
3726.34+43721912+43167820+42526520+42121560+42127676+42611216+43533972+44618492
3734.06+45160772+44194972+41410856+37666692+34122156+31365778+29450050+28205854
3741.77+27415030+26830794+26221992+25511704+24923938+24811478+25316470+26273324
3749.49+27111712+26780288+24586612+21359470+18518914+16678551+15755799+15433098
3757.20+15322259+15036609+14364100+13454003+12709092+12411738+12583451+13069248
3764.92+13654764+14152017+14453725+14491238+14151087+13312360+12028273+10598808
3772.63+9386753+8604795+8314753+8483349+9004578+9658904+10128450+10159998
3780.35+9811297+9434023+9337401+9566195+9918329+10110723+9981423+9578782
3788.06+9077152+8616855+8287176+8145807+8251256+8652655+9361669+10350651
3795.78+11557681+12894653+14298460+15716748+17006286+17796598+17650840+16618314
3803.49+15319363+14236061+13372040+12470118+11369175+10219663+9345380+8964409
3811.21+9134352+9828555+10991930+12513595+14183775+15726506+17011916+18151430
3818.92+19249598+20049172+19955542+18712194+16927042+15376559+14299265+13540070
3826.64+12874696+12205644+11596085+11189838+11125569+11490727+12311587+13530063
3834.35+15051671+16765918+18523248+20008942+20726650+20328750+18985612+17189920
3842.07+15334179+13598844+12095798+10958115+10335537+10343612+11037109+12404737
3849.78+14362570+16706290+18959302+20147314+19274704+16868240+14488471+12825359
3857.50+11828700+11404117+11562788+12339317+13648147+15157221+16290161+16561924
3865.21+16099066+15538202+15421743+15859584+16550090+16952370+16633218+15569567
3872.93+14035486+12344299+10828340+9812506+9472585+9768218+10499602+11379255
3880.64+12152994+12728992+13167102+13465401+13466441+13046605+12379284+11876963
3888.36+11834833+12248829+12839668+13153594+12829890+11975848+11089060+10612267
3896.07+10744449+11511830+12845638+14587576+16488214+18227496+19428642+19643232
3903.79+18536268+16254337+13506782+11060145+9292073+8206863+7644397+7437329
3911.50+7489399+7809742+8439119+9371739+10478820+11485788+12057384+12035830
3919.22+11594373+11106010+10862409+10914518+11076707+11086187+10826134+10473286
3926.93+10372157+10753666+11581230+12543627+13157996+13015504+12079796+10725015
3934.65+9442395+8549234+8135646+8149974+8478434+8997586+9572352+10058720
3942.36+10333365+10371975+10301607+10305956+10480805+10764378+10975660+10938464
3950.08+10607204+10087409+9533703+9058264+8713668+8519557+8463776+8501297
3957.79+8567671+8596025+8548064+8418946+8232402+8036152+7895727+7853171+7923304
3966.47+8072983+8255015+8428436+8581630+8725929+8878869+9028841+9136755+9149735
3975.15+9051608+8878792+8709218+8607869+8579597+8569930+8512806+8371019+8157516
3983.83+7909518+7673124+7499292+7437329+7485784+7690866+8017825+8396855+8736550
3992.51+8945751+8955672+8751741+8391427+7989074+7651455+7437329
##END=
