##TITLE=Default
##JCAMP-DX=4.24
##DATA TYPE=INFRARED SPECTRUM
##DATE=19/9/2016
##SAMPLING PROCEDURE=ATR
##ORIGIN=Default
##XUNITS=1/CM
##YUNITS=ABSORBANCE
##RESOLUTION=4
##FIRSTX=599.84104
##LASTX=3998.2974
##DELTAX=0.96437467
##MAXY=2
##MINY=-8.6736174e-019
##XFACTOR=1
##YFACTOR=1.8626452e-009
##NPOINTS=3525
##FIRSTY=0.043962047
##XYDATA=(X++(Y..Y))
599.84+23601944+24725852+24641038+23298190+21043814+18395264+15775592+13342621
607.56+11053172+8823518+6657647+4676403+3094440+2188945+2200647+3215184+5066554
616.24+7396514+9837396+12191881+14524907+17105156+20256788+24215948+29010820
623.95+34449624+40192844+45880292+51221952+56049260+60314680+64069932+67392480
631.67+70322064+72870840+75118952+77300416+79776632+82894016+86842264+91634000
639.38+97139360+103109432+109214456+115152712+120794704+126251176+131769592
646.13+137537696+143528640+149492736+155105920+160182528+164813696+169318992
652.88+174054368+179197760+184678368+190243088+195601104+200541776+204990496
659.63+209009056+212750864+216423472+220318544+224910336+230961200+239516528
666.38+251455392+265913184+278478656+284239072+283831808+281562272+280462656
673.13+281434016+284154592+287812672+291611168+295070240+298026656+300473696
679.88+302431392+303913920+304919584+305437344+305451232+304942720+303851168
686.63+302058592+299423424+295876224+291483584+286411904+280849024+274952320
693.39+268856672+262691504+256562688+250521776+244569664+238703920+232968912
700.14+227446704+222205056+217248704+212529536+208007568+203702960+199698336
706.89+196085168+192903536+190126832+187696224+185568032+183737392+182231872
713.64+181097296+180411456+180295600+180867760+182114496+183755136+185257264
720.39+186075312+185993232+185262736+184382288+183716400+183249584+182602720
727.14+181228160+178632672+174520208+168837200+161757040+153609600+144778752
733.89+135605936+126354520+117237336+108463592+100252264+92808112+86277536
740.64+80717096+76086616+72278592+69159032+66604132+64504024+62755960+61262664
748.35+59941868+58735024+57594800+56469608+55302024+54043724+52675656+51208076
756.07+49668240+48090660+46508204+44950864+43440564+41994044+40628880+39361976
763.78+38194196+37097812+36016360+34885428+33664940+32357624+31007392+29679574
771.50+28430142+27286984+26248582+25299838+24420286+23586914+22768936+21938826
779.21+21096390+20278114+19534798+18894886+18343184+17836772+17341402+16852692
786.93+16394935+16006992+15726015+15571122+15532160+15565947+15608568+15596405
794.64+15477886+15219489+14803940+14229657+13502756+12635811+11645832+10567165
802.36+9465490+8432889+7554770+6863980+6315672+5807777+5237533+4567625+3856447
811.04+3215184+2546396+2035617+1612207+1204585+804414+459868+218644+83067+19250
820.68+0+32040+140522+338053+610772+930992+1270693+1609289+1929113+2217210
830.33+2465818+2675282+2850925+3001863+3134177+3244587+3318308+3341333+3318407
839.01+3275621+3246746+3247751+3271221+3297674+3310760+3297707+3244570+3139929
847.69+2991216+2830735+2698982+2611564+2545951+2461978+2333801+2172216+2004714
856.36+1850727+1712035+1592692+1521410+1552923+1738752+2095841+2600818+3215184
865.04+3183490+3248987+3438871+3773363+4238373+4777929+5302124+5717393+5961896
873.72+6027839+5952765+5792878+5593122+5379785+5165509+4962522+4780533+4621289
882.40+4477899+4339899+4206415+4095792+4042012+4078387+4224413+4479712+4835235
891.08+5287324+5844663+6524295+7342883+8321853+9493443+10910014+12633800
898.80+14715665+17170918+19944150+22877960+25700522+28060644+29614786+30136854
906.51+29603858+28206818+26290048+24254844+22465890+21187384+20558630+20595960
914.23+21225060+22324610+23778578+25505858+27465858+29644568+32033516+34622976
921.94+37406212+40391776+43615036+47142480+51068544+55498744+60510664+66097260
929.66+72103144+78162664+83686624+87927160+90129688+89744920+86608568+81010768
937.37+73609048+65240696+56717240+48683948+41558720+35533912+30611060+26650072
945.09+23440360+20773550+18506300+16573446+14961816+13661242+12628790+11786320
952.80+11047519+10346329+9661538+9012397+8442877+7990871+7659955+7422308
960.52+7234781+7074943+6947574+6874693+6865018+6906139+6974735+7058264+7165723
969.20+7320782+7543678+7840642+8202807+8620828+9095117+9633025+10241078
976.91+10912948+11634773+12403916+13236283+14160649+15192805+16321361+17507322
984.63+18703238+19863572+20952622+21953100+22868468+23726002+24569922+25444514
992.34+26387504+27421902+28556176+29780474+31072692+32407284+33767768+35154112
1000.06+36587608+38113352+39797520+41714468+43918364+46406432+49097256+51830616
1007.77+54394960+56581352+58248064+59371888+60056168+60484624+60847132+61278620
1015.49+61834872+62510384+63272424+64093320+64965952+65904292+66928684+68045904
1023.20+69247080+70520768+71872040+73334000+74958536+76798224+78891344+81246784
1030.92+83830592+86554872+89276632+91825712+94050128+95865720+97274840+98349520
1038.63+99180288+99832080+100330232+100681936+100901944+101017400+101054480
1045.38+101027416+100950648+100867184+100854312+101004232+101383440+102005848
1052.13+102835704+103808808+104861504+105945672+107032792+108116768+109208320
1058.88+110328128+111496088+112706760+113913552+115030024+115947408+116575304
1065.63+116871840+116858800+116612488+116243384+115864488+115573952+115437632
1072.38+115492200+115741224+116151760+116654840+117162064+117602296+117950904
1079.14+118227808+118467880+118685744+118873320+119027080+119169960+119349472
1085.89+119609304+119959256+120373224+120807528+121224344+121604920+121945016
1092.64+122245952+122511256+122751096+122988680+123249232+123545656+123860976
1099.39+124152912+124376424+124509408+124562824+124574400+124585856+124627208
1106.14+124707088+124817928+124949752+125103640+125294440+125545272+125876240
1112.89+126298896+126815504+127425504+128127472+128920112+129801088+130770544
1119.64+131832072+132991664+134245488+135569024+136908464+138193152+139365072
1126.39+140416512+141412096+142482784+143797104+145520064+147781376+150651312
1133.14+154117760+158060144+162235264+166294064+169857856+172620736+174450672
1139.89+175425104+175784912+175830528+175809088+175846288+175931456+175955328
1146.64+175768560+175234880+174263808+172834704+171000240+168875232+166616128
1153.39+164387936+162339760+160592320+159239536+158356240+157998800+158198320
1160.14+158962304+160275104+162110496+164442720+167253232+170535696+174297424
1166.89+178554848+183324560+188616624+194430080+200747840+207517808+214627552
1173.64+221877664+228982960+235600960+241377952+246000848+249239440+250993872
1180.39+251337760+250528304+248968272+247128496+245474832+244418912+244306880
1187.15+245422432+247989456+252166176+258032624+265552208+274518752+284483328
1193.90+294713952+304213056+311837280+316515072+317512352+314648960+308359808
1200.65+299557696+289375712+278894272+268948960+260064896+252490400+246286208
1207.40+241405728+237752576+235200064+233609552+232837600+232749696+233232976
1214.15+234210016+235647200+237551392+239959232+242920784+246476304+250603952
1220.90+255150224+259791824+264081952+267597808+270129216+271792160+272985600
1227.65+274213472+275874944+278139936+280942656+284070720+287271936+290333248
1234.40+293108640+295513248+297511808+299115200+300376160+301374368+302191360
1241.15+302892672+303522080+304106784+304659744+305186464+305690144+306180480
1247.90+306679808+307216800+307825152+308532160+309356064+310306272+311397280
1254.65+312663008+314166944+315984320+318168544+320727488+323622272+326788928
1261.40+330168064+333722848+337439584+341310688+345310208+349372640+353393728
1268.15+357239584+360754112+363754240+366024000+367325184+367427296+366130144
1274.90+363273824+358758400+352587584+344913216+336042848+326387968+316393376
1281.65+306479584+296998048+288196128+280193600+272997312+266558816+260834896
1288.40+255809088+251475184+247806704+244746752+242218448+240141248+238440400
1295.16+237053792+235934032+235038864+234317664+233703584+233118560+232483072
1301.91+231727616+230802880+229684384+228372576+226883872+225243952+223493088
1308.66+221688352+219889072+218124784+216388400+214667856+212989424+211422080
1315.41+210023520+208790736+207670624+206619216+205656704+204866752+204339808
1322.16+204127056+204227312+204599088+205169808+205852848+206571200+207276960
1328.91+207964656+208670688+209466848+210442720+211677600+213212176+215040608
1335.66+217112272+219326784+221507904+223412400+224842864+225821888+226596336
1342.41+227438224+228496624+229806896+231354672+233118656+235080640+237229712
1349.16+239560496+242074432+244772592+247645760+250671856+253814512+257034448
1355.91+260304816+263628784+267045296+270624768+274462080+278652384+283209792
1362.66+287964832+292618112+296975136+301061024+304969216+308676832+311994304
1369.41+314666560+316500864+317350560+316993248+315157536+311842368+307601728
1376.16+303248352+299270976+295701664+292407936+289347648+286624160+284381344
1382.91+282660448+281320416+280034688+278356992+275927904+272801696+269511488
1389.66+266630528+264360800+262555040+260919408+259190880+257291632+255405552
1396.41+253828864+252724304+252104352+251987872+252454464+253575280+255382016
1403.17+257914544+261239616+265386336+270314944+276040320+282795968+291015040
1409.92+301112192+313162272+326660640+340589696+353765792+365117536+373555008
1416.67+377499552+374839424+364787584+350549984+337323392+327476928+320303168
1423.42+314509056+309630432+306000128+304040672+303806368+305097312+307698080
1430.17+311377056+315755904+320381184+324953024+329374624+333573952+337275712
1436.92+340046208+341745792+342702368+343293632+343690976+343959840+344197728
1443.67+344544608+345108800+345915808+346956256+348279936+350030272+352362976
1450.42+355340480+358911808+362951936+367317856+371928064+376879552+382502624
1457.17+388984256+395650624+401696096+407201888+412463392+417334048+420976128
1463.92+421839840+418499488+411354592+402820032+395201472+389455232+385734720
1470.67+384128768+384727712+386785312+387874560+385455840+379203168+370368416
1477.42+360191264+349337888+338015296+326393024+315086336+305230720+297922656
1484.17+293593216+291981504+292592416+295176864+299932416+307063456+315750176
1490.92+324313664+331891616+338873056+346154976+354705152+365376032+378404032
1497.67+392727776+406527136+418837920+429830784+439938208+449438976+458654880
1504.42+468464640+481181248+500852800+527918432+552637183+569109759+581211327
1511.18+592698687+604750911+617446719+630966591+645992511+663134911+681772223
1517.93+700046591+716989887+734161215+754267775+777568895+800422399+819710271
1524.68+836203583+852092671+867998079+882739327+895087039+904910719+912541887
1531.43+917736831+919516543+917383103+912894143+908628159+905671551+903176127
1538.18+898740863+887860799+865144831+833039551+803529023+781084863+762748159
1544.93+746941567+733572543+721962623+710564351+697842175+683354047+668138879
1551.68+653737599+640806655+629018943+618032319+607860735+597543487+582419839
1558.43+555256703+521346016+497558848+485577504+478232064+470899328+462100960
1565.18+452198464+442104192+431972864+420742976+407347328+392894560+380430880
1571.93+371676416+365784160+360655584+353996576+344376032+333105920+323544160
1578.68+317157216+313027040+309946912+307316032+305038784+303243936+302090816
1585.43+301680192+302056000+303224096+305178752+307927328+311485984+315862432
1592.18+321055872+327095040+334043712+341933088+350689728+360190464+370416768
1598.93+381550624+393913504+407784512+423200928+439866240+457302944+475174080
1605.68+493508480+512655552+533016128+554691839+577277311+599997439+622137663
1612.43+643482943+664649215+687411455+714615615+748050559+784363327+816553215
1619.19+841730111+862354239+882186367+903830719+927557119+951113791+971975487
1625.94+989822591+1005956927+1021337407+1035712511+1048213055+1058370303
1631.72+1066287871+1071881983+1073741823+1068178175+1051132351+1025376703
1637.51+1000414591+980539199+963587839+946988415+930019391+913212287+896916671
1644.26+879776831+857721663+825789247+786127295+751075199+728565119+715432383
1651.01+703874815+683778559+645978623+598952767+564130559+544217151+530810944
1657.76+518590016+505700896+491421792+474818592+454890112+432287072+410305152
1664.51+392318944+378882784+368150368+357398848+343958944+326752256+308273536
1671.26+292549472+280563136+270322400+259621104+247818608+236101824+226035376
1678.01+218025696+211458128+205573792+199827104+193537536+185323696+173838192
1684.76+160742800+150091152+143012528+137744032+132548096+126880912+121267192
1691.51+116469440+112706640+109567520+106372600+102588120+98167496+93468200
1698.26+88597576+83271200+77676024+72763128+69189152+66718848+64678100+62467232
1705.98+59878040+57204188+54915188+53218700+52023792+51165808+50568716+50253832
1713.69+50222012+50275200+49868680+48281764+45480248+42503776+40207252+38632316
1721.41+37501112+36558332+35638720+34705240+33853704+33225958+32888994+32805536
1729.12+32897596+33119162+33435108+33681400+33461418+32444232+30954082+29663212
1736.84+28792356+28146742+27484824+26696566+25813078+24912342+24033826+23194340
1744.55+22425864+21750822+21123692+20406960+19378714+17815106+15714050+13445025
1752.27+11488520+10077289+9150664+8503286+7932123+7353139+6814053+6371812
1759.98+5974055+5489453+4853781+4170230+3617930+3297336+3215184+3324563+3597361
1768.66+3968768+4355915+4649616+4696951+4363715+3711731+3012061+2510763+2291332
1777.34+2309709+2462818+2639228+2753598+2770462+2706465+2609141+2526008+2483387
1786.02+2493074+2576475+2782700+3159262+3697330+4270702+4651829+4690115+4480759
1794.70+4231109+4056533+3976630+3992902+4097951+4237030+4306063+4224475+4016301
1803.38+3783998+3618153+3560686+3624416+3804295+4066677+4333624+4499597+4479065
1812.06+4259103+3909101+3542766+3280001+3215184+3232992+3445290+3772028+4151141
1820.74+4556842+4972209+5361482+5679065+5911022+6090514+6261835+6422769+6500463
1829.42+6382896+6016335+5493256+4998122+4671083+4546166+4567489+4636229+4681384
1838.10+4715204+4813504+5046046+5424091+5901784+6373514+6685279+6717372+6492585
1846.78+6138067+5753940+5374330+5016524+4724319+4555606+4540603+4656996+4849438
1855.46+5073789+5306228+5523739+5685645+5756054+5734146+5665958+5622080+5677643
1864.14+5901153+6338355+6969404+7649090+8093580+8049990+7547600+6873683+6299714
1872.82+5945509+5823447+5892805+6083361+6311696+6505564+6627672+6674026+6667417
1881.49+6644911+6645900+6697401+6807469+6974488+7192625+7442127+7656568+7740018
1890.17+7644392+7442106+7281008+7265981+7390577+7555536+7644714+7597280+7432547
1898.85+7216841+7023150+6908974+6896873+6969536+7091070+7241497+7428068+7661442
1907.53+7918468+8135983+8244369+8219618+8101631+7968563+7895509+7925971+8056917
1916.21+8238766+8401554+8496957+8531412+8530876+8492664+8374553+8142736+7824626
1924.89+7503302+7261662+7136378+7123922+7202201+7341627+7508778+7669626+7795874
1933.57+7870663+7893169+7880478+7876905+7946078+8151529+8521952+9022220+9544268
1942.25+9936145+10085356+9992668+9747444+9448292+9154335+8895069+8697027
1949.97+8578088+8533798+8520518+8468510+8320695+8066464+7763496+7516351+7429770
1958.64+7556805+7878669+8311470+8745425+9090416+9302863+9396074+9434513+9512623
1967.32+9711889+10044635+10443826+10806320+11057252+11199149+11339766+11680863
1975.04+12453216+13774396+15525073+17334914+18740446+19428896+19379616+18825160
1982.75+18097106+17462526+17042346+16823368+16731051+16706876+16729567+16784802
1990.47+16819598+16745728+16498719+16094616+15618519+15147938+14702117+14254062
1998.18+13779835+13290490+12824364+12410047+12045500+11733398+11530296+11554936
2005.90+11903644+12535451+13240972+13760849+13955928+13888523+13735030+13648280
2013.61+13688186+13838806+14065093+14320145+14545431+14689307+14749411+14781945
2021.33+14855782+14999559+15181845+15329519+15367925+15257507+15028105+14790631
2029.04+14702191+14902751+15452954+16315638+17365512+18415120+19261360+19749144
2036.76+19848090+19662356+19367140+19119604+19002964+19015674+19108940+19235724
2044.47+19415908+19758078+20395402+21341470+22359024+23025470+22985996+22193540
2052.19+20946568+19684186+18740268+18207672+17989568+17943872+17994772+18132414
2059.90+18352800+18611066+18830562+18959910+19006718+19033306+19105162+19248748
2067.62+19439032+19625216+19763430+19839306+19864136+19862738+19859220+19863698
2075.33+19878416+19901598+19931838+19966432+19995382+20005864+19987520+19932370
2083.05+19834048+19688690+19505358+19309236+19120180+18924448+18672198+18312094
2090.76+17853248+17387698+17066834+17028572+17327622+17903866+18600518+19233098
2098.48+19673244+19890242+19939770+19908262+19861700+19828194+19810684+19802580
2106.19+19803418+19818014+19861422+19949408+20081032+20223488+20312664+20276206
2113.91+20068616+19691226+19197762+18667168+18168452+17722616+17300722+16854272
2121.62+16365900+15861930+15390013+14967356+14559696+14101237+13535054+12850228
2129.34+12095374+11377819+10848742+10654736+10876694+11476000+12289946+13096264
2137.05+13701991+14015375+14057500+13928814+13754184+13639351+13643492+13770826
2144.77+13985269+14221771+14410701+14487773+14401156+14100926+13546043+12710852
2152.48+11608237+10343739+9186371+8614586+9236881+11517381+15396756+20110606
2160.20+24501126+27655366+29345538+29928036+29921034+29640430+29136078+28335290
2167.91+27216838+25864080+24426604+23072652+21963886+21241548+20984012+21147442
2175.63+21553050+21951800+22163684+22182992+22176760+22355822+22815952+23467836
2183.34+24115338+24590618+24841438+24901788+24833770+24687254+24514822+24371156
2191.06+24291494+24260500+24219138+24109200+23913026+23664688+23415204+23201324
2198.77+23027508+22871366+22713124+22558072+22442826+22420582+22532186+22775786
2206.49+23095124+23384956+23535600+23487194+23276022+23021778+22851638+22823620
2214.20+22898508+22985644+23014970+22967286+22858144+22710740+22544284+22381842
2221.92+22258376+22207068+22246034+22363274+22518772+22656040+22731860+22748702
2229.63+22764366+22853020+23044706+23293634+23499256+23577582+23515514+23376316
2237.35+23255264+23218528+23271992+23365496+23436628+23449348+23414966+23375634
2245.06+23375520+23436878+23552644+23692796+23814934+23885018+23904338+23931784
2252.78+24064774+24384146+24892944+25503014+26078958+26514710+26778090+26910674
2260.49+26987462+27074280+27212430+27418548+27693610+28026424+28387394+28727644
2268.21+28996978+29165012+29243062+29274106+29304796+29354262+29411768+29456156
2275.92+29473856+29461908+29416412+29330648+29215356+29125232+29161114+29434860
2283.64+30007658+30857656+31881032+32947786+33962080+34900976+35806076+36744676
2291.35+37773760+38918400+40170116+41500260+42875316+44279908+45724952+47232572
2299.07+48811992+50445360+52115708+53858200+55785080+58056804+60799932+64035580
2306.78+67662984+71492176+75304184+78896984+82126984+84948800+87451536+89870632
2314.50+92532672+95761240+99779808+104668456+110368432+116700776+123362656
2321.25+129919864+135856304+140742736+144440224+147179328+149429088+151657568
2328.00+154121872+156783344+159376240+161600656+163342016+164752064+166124992
2334.75+167693264+169516320+171534848+173679104+175899648+178068016+179841232
2341.50+180563520+179257120+174823248+166765744+156092160+145230288+136733152
2348.25+132209472+132259008+136868416+145629632+157701056+171768480+186323616
2355.00+200173344+212624368+223183104+231342000+236764928+239507232+239909600
2361.75+238282224+234775360+229420800+222273360+213504320+203414480+192364016
2368.50+180679728+168628688+156440656+144330032+132476872+121015688+110046560
2375.25+99654552+89904016+80815936+72357160+64463896+57077852+50183396+43821632
2382.97+38080324+33066470+28863424+25494632+22915006+21026980+19708214+18839892
2390.68+18317966+18056020+17976242+18004788+18077116+18147442+18197236+18239870
2398.40+18297762+18377960+18461562+18519578+18541440+18552264+18605704+18748248
2406.11+18987668+19286182+19576168+19799004+19931524+19990872+20015796+20039078
2413.83+20076106+20132630+20213832+20324646+20462958+20614676+20761230+20893458
2421.54+21012530+21123736+21225780+21310190+21369216+21402032+21417212+21426982
2429.26+21437698+21452764+21474174+21513570+21588350+21713456+21890536+22101144
2436.97+22318126+22520306+22704512+22878032+23047562+23210050+23352896+23467160
2444.69+23558014+23647574+23761620+23912742+24090598+24268816+24424334+24546542
2452.40+24636734+24699374+24733992+24738944+24715166+24669014+24610742+24554586
2460.12+24511150+24487492+24483026+24493980+24516350+24550028+24596652+24656464
2467.83+24727584+24809060+24901848+25003940+25107214+25199778+25273264+25327442
2475.55+25367132+25401524+25442160+25502698+25594102+25713654+25840520+25943128
2483.26+25994962+25991428+25956558+25932172+25956678+26044910+26181694+26334622
2490.98+26474836+26590550+26688122+26779098+26868662+26952336+27022816+27076206
2498.69+27118516+27159296+27208326+27268672+27338454+27414840+27499236+27596258
2506.41+27710614+27842542+27987216+28137206+28275884+28384378+28445230+28455718
2514.12+28434122+28410882+28413350+28452970+28528916+28635772+28765398+28903756
2521.84+29028444+29116324+29164098+29194410+29239466+29317212+29421976+29532648
2529.55+29633648+29728042+29825512+29930656+30039230+30146864+30255326+30370764
2537.27+30490452+30600708+30686642+30741882+30778824+30818478+30880570+30978088
2544.98+31110684+31266672+31425388+31566868+31682136+31779098+31875950+31987568
2552.70+32114674+32246036+32368430+32477598+32581210+32688848+32804412+32918800
2560.41+33021134+33108934+33193074+33287030+33397542+33514794+33624372+33718340
2568.13+33800260+33879812+33959132+34031360+34089636+34135492+34181468+34242936
2575.84+34330196+34444896+34582076+34733580+34890180+35046324+35200108+35356276
2583.56+35522508+35699880+35875732+36029340+36138804+36197248+36221600+36246780
2591.27+36309844+36429620+36591320+36755756+36885980+36972624+37038788+37122248
2598.99+37242780+37387720+37519876+37603232+37625228+37603388+37572784+37570136
2606.70+37617124+37713156+37838816+37965664+38066332+38120204+38116368+38056848
2614.42+37960952+37862096+37798316+37796380+37861852+37977564+38112232+38232228
2622.13+38310272+38338548+38330092+38313220+38315664+38347028+38396396+38441740
2629.85+38468480+38476848+38480716+38492404+38513212+38535688+38553772+38572100
2637.56+38605476+38666108+38753412+38850316+38935368+38991276+39016476+39022476
2645.28+39027048+39044428+39079472+39127196+39178712+39226320+39264204+39287160
2652.99+39286756+39252568+39177248+39062112+38918180+38762052+38607832+38459192
2660.71+38311404+38155688+37987428+37813848+37654384+37533064+37468252+37464064
2668.42+37507132+37574480+37645380+37711072+37783164+37880132+38016312+38185312
2676.14+38363924+38523596+38648204+38742956+38828236+38929276+39063392+39233776
2683.85+39430612+39634104+39826236+39997404+40150324+40291856+40429852+40563348
2691.57+40687012+40794420+40886776+40971780+41060228+41161136+41278656+41414932
2699.28+41571152+41743404+41918872+42078100+42207776+42308504+42394036+42480516
2707.00+42576148+42684968+42817056+42987148+43209632+43484040+43792344+44109136
2714.71+44408976+44675112+44899792+45089440+45263764+45451660+45677380+45949152
2722.43+46253552+46566796+46870096+47161420+47455052+47766108+48099340+48444428
2730.14+48786480+49116200+49431680+49733856+50022140+50292948+50548052+50801880
2737.86+51073028+51375812+51707984+52053092+52383584+52675228+52916320+53107292
2745.57+53259384+53387972+53507356+53634884+53788800+53981052+54217512+54491144
2753.29+54787512+55089896+55386708+55669336+55932884+56177820+56403780+56611464
2761.00+56803260+56990184+57192304+57433560+57725688+58057104+58398868+58718076
2768.72+58992784+59217852+59403912+59571664+59745540+59950696+60201976+60500732
2776.43+60835604+61188504+61547936+61913068+62286904+62667756+63043532+63397660
2784.15+63717780+64011296+64300296+64612140+64971228+65389592+65865464+66382780
2791.86+66918748+67449208+67964048+68466160+68970200+69495192+70054992+70657224
2799.58+71296856+71957440+72614864+73246208+73843864+74415288+74975880+75537728
2807.29+76109640+76705016+77346024+78056256+78845840+79697688+80573984+81439048
2815.01+82281736+83119312+83980904+84882048+85816144+86756640+87683000+88590856
2822.72+89492560+90400392+91312176+92215384+93099872+93976120+94874456+95832248
2830.44+96878160+98029296+99303328+100727528+102339072+104181072+106301648
2837.19+108760192+111626848+114971480+118845832+123277200+128278760+133865120
2843.94+140057232+146868640+154281648+162230496+170591344+179188816+187815616
2850.69+196255968+204306848+211786464+218529712+224391056+229254272+233051376
2857.44+235771680+237457232+238186752+238061632+237197456+235727440+233805712
2864.19+231606112+229306512+227059104+224960384+223029248+221218048+219434816
2870.94+217576048+215547344+213272352+210690160+207757408+204455088+200806608
2877.69+196888240+192824832+188764400+184849760+181200560+177912640+175065664
2884.44+172724320+170930256+169694368+169000112+168819120+169123904+169892896
2891.20+171108864+172754000+174804480+177231968+180007696+183104544+186496608
2897.95+190151184+194028864+198083488+202275680+206574576+210955696+215388848
2904.70+219831680+224239312+228579920+232848048+237070560+241302160+245620880
2911.45+250115008+254867744+259934560+265329568+271023360+276957664+283060480
2918.20+289256736+295474208+301642720+307700448+313601088+319308608+324785760
2924.95+329977024+334808064+339202368+343096864+346440128+349160736+351143776
2931.70+352223552+352223296+351010624+348545952+344895328+340203936+334656192
2938.45+328442176+321743552+314738240+307595968+300459872+293411712+286453216
2945.20+279511008+272478848+265269600+257855648+250284480+242668448+235154624
2951.95+227887472+220977664+214484704+208422064+202769248+197489792+192535488
2958.70+187853776+183397088+179128880+175023808+171057088+167193856+163394080
2965.45+159622800+155859808+152103808+148361568+144642976+140956864+137313936
2972.20+133733280+130246208+126893840+123716208+120733304+117937320+115305288
2978.95+112818584+110481800+108314152+106328048+104508016+102813168+101195888
2985.70+99627120+98106656+96655200+95298832+94059160+92954800+91996600+91185808
2993.42+90503976+89916968+89395992+88939192+88571752+88328144+88225064+88250688
3001.13+88373488+88556752+88765928+88972200+89154312+89304608+89434392+89565384
3008.85+89723616+89928392+90188880+90503248+90862288+91255440+91681272+92150632
3016.56+92679864+93285696+93974520+94734016+95527680+96311664+97057184+97773456
3024.28+98509384+99314112+100201400+101137000+102069256+102965136+103824688
3031.03+104674840+105550096+106489128+107524872+108666216+109881896+111103136
3037.78+112265752+113347520+114386800+115452232+116606128+117879320+119274744
3044.53+120777488+122363104+123994280+125621512+127204520+128722472+130182808
3051.28+131608344+133020768+134429616+135834368+137229712+138605200+139938416
3058.03+141192544+142327472+143315776+144152304+144850416+145427216+145895584
3064.78+146270576+146581344+146871232+147189200+147566576+148005520+148475856
3071.53+148919376+149265520+149454016+149464320+149326368+149108624+148883728
3078.28+148692704+148536640+148390128+148223216+148014976+147751536+147424416
3085.03+147029520+146571504+146060960+145523008+144991360+144504976+144089824
3091.79+143734976+143384480+142953600+142365840+141588976+140651584+139630896
3098.54+138623968+137709984+136921312+136229424+135563792+134848992+134045992
3105.29+133164424+132252832+131377304+130598480+129947720+129410288+128931536
3112.04+128449056+127932136+127398016+126890664+126447848+126085952+125808304
3118.79+125620552+125531440+125542688+125642064+125802840+125990360+126165872
3125.54+126295112+126367656+126411728+126486248+126652408+126939808+127328584
3132.29+127763264+128181544+128541424+128838288+129101808+129384488+129740744
3139.04+130212168+130810888+131512696+132271120+133034576+133771720+134479552
3145.79+135171984+135861792+136550448+137231168+137905376+138594016+139337616
3152.54+140176384+141131040+142182976+143286976+144397456+145496816+146604816
3159.29+147751728+148950800+150188208+151439456+152696784+153973120+155289776
3166.04+156653440+158049152+159449808+160836688+162205792+163571952+164953200
3172.79+166361744+167792928+169224144+170629936+171990880+173300640+174569024
3179.54+175816880+177067856+178336144+179619904+180904640+182168416+183397344
3186.29+184589392+185756896+186919872+188094016+189282544+190472592+191645296
3193.04+192792432+193923984+195055168+196188032+197301120+198363712+199359008
3199.80+200297200+201203392+202095840+202978000+203848608+204717648+205614816
3206.55+206579104+207630096+208751680+209892928+210995264+212024976+212989856
3213.30+213935760+214915568+215969024+217104640+218304000+219539984+220794528
3220.05+222069552+223386032+224767856+226228368+227760816+229351008+230980800
3226.80+232633680+234288352+235924400+237536000+239152464+240836640+242662400
3233.55+244679664+246896128+249280576+251789904+254386464+257036464+259708560
3240.30+262367856+264985232+267546736+270059872+272555456+275089760+277732128
3247.05+280546592+283563872+286762080+290074208+293409600+296689248+299880064
3253.80+303008704+306152640+309400384+312808352+316375648+320050880+323764032
3260.55+327452160+331073504+334609888+338060000+341433152+344735328+347964704
3267.30+351121984+354235552+357371072+360609504+364008672+367573856+371265120
3274.05+375027008+378817216+382617632+386432064+390278976+394180960+398146880
3280.80+402166688+406215520+410270400+414321728+418363616+422377760+426322464
3287.55+430139456+433772512+437181856+440342112+443230880+445819680+448069184
3294.30+449938080+451384864+452365440+452824416+452698560+451928768+450461728
3301.05+448260352+445313664+441654432+437353664+432488192+427095392+421172672
3307.81+414723200+407807008+400542656+393055392+385439392+377756672+370070752
3314.56+362454784+354968864+347635200+340448992+333406400+326526560+319842784
3321.31+313387296+307176896+301220416+295525408+290099552+284947904+280057664
3328.06+275400640+270936896+266638544+262497248+258518352+254697872+251005040
3334.81+247389504+243813536+240282816+236852960+233597696+230562240+227731904
3341.56+225054176+222475248+219975936+217568304+215260240+213030416+210830064
3348.31+208624640+206418256+204258112+202210400+200323536+198605856+197021760
3355.06+195505168+193995392+192465312+190928800+189417920+187954224+186542096
3361.81+185170144+183822368+182487904+181160480+179850656+178584944+177391312
3368.56+176276400+175218832+174191024+173179984+172193312+171247536+170346656
3375.31+169479328+168626080+167776976+166938896+166134368+165381440+164676112
3382.06+163987088+163274096+162516640+161732784+160968256+160266848+159648768
3388.81+159097312+158570016+158018896+157420512+156795440+156195968+155663232
3395.56+155187120+154716800+154207200+153655328+153100000+152582544+152114624
3402.31+151679680+151250176+150805776+150336688+149838784+149312096+148763920
3409.06+148205296+147652320+147113632+146591600+146078960+145567952+145068336
3415.82+144610032+144225504+143917280+143644192+143328960+142903904+142355248
3422.57+141732560+141108368+140530208+140002176+139501792+139014736+138549600
3429.32+138123648+137736704+137355952+136941968+136481568+135994928+135521712
3436.07+135083424+134679104+134293152+133909120+133515872+133114280+132717720
3442.82+132351008+132023576+131706120+131328448+130818024+130157184+129409272
3449.57+128678736+128047992+127540544+127129472+126759176+126378792+125970704
3456.32+125558744+125182832+124866656+124591312+124299816+123936640+123480920
3463.07+122963624+122442520+121962992+121528608+121109736+120673824+120213992
3469.82+119749464+119309184+118907320+118537064+118180544+117825824+117477072
3476.57+117155576+116885816+116664304+116441344+116131592+115661816+115029800
3483.32+114315800+113623320+113010528+112472920+111967992+111457552+110932160
3490.07+110409864+109916896+109468784+109060208+108665464+108249848+107785728
3496.82+107282304+106787464+106367016+106057232+105825040+105557672+105121840
3503.57+104462832+103670264+102898912+102240792+101670400+101090656+100408176
3510.32+99597328+98707608+97821728+97002984+96278520+95639744+95056280+94495240
3518.04+93947128+93428824+92963760+92552600+92165712+91766504+91328072+90834040
3525.75+90263104+89573744+88733120+87753312+86706688+85695848+84800944+84048536
3533.47+83410152+82813680+82167504+81403944+80532928+79656016+78909760+78392232
3541.18+78119016+78015920+77934400+77684040+77107576+76181952+75062408+73979504
3548.90+73072592+72327488+71621376+70818616+69865216+68834096+67862152+67045772
3556.61+66400444+65892100+65477528+65123268+64816344+64569792+64419604+64394468
3564.33+64452880+64406452+63912648+62725296+61063540+59437608+58160008+57236000
3572.04+56541004+55944068+55357092+54748868+54137512+53557760+53025056+52534016
3579.76+52082212+51698988+51443376+51378412+51537368+51889988+52298792+52479708
3587.47+52134928+51297084+50381692+49766788+49539340+49576448+49664372+49590820
3595.19+49251216+48708128+48110156+47543204+46962436+46245188+45320412+44277320
3602.90+43327944+42660224+42322952+42196124+42021180+41517316+40583628+39404984
3610.62+38279824+37396808+36801600+36476584+36384140+36460184+36601324+36663584
3618.33+36500136+36062480+35493752+35021452+34766972+34732104+34888904+35217748
3626.05+35679476+36121500+36176668+35428204+33954652+32313288+30834034+29477988
3633.76+28143098+26819940+25580120+24492136+23564052+22758400+22034180+21376104
3641.48+20804442+20370914+20142878+20185486+20548218+21239556+22125972+22693896
3649.19+22106176+20274912+18252812+16802136+15966139+15519862+15206730+14808429
3656.91+14227476+13535676+12877206+12324908+11866348+11470161+11142119+10933146
3664.62+10918347+11158219+11670078+12396856+13161525+13658873+13675849+13391815
3672.34+13196801+13295888+13619913+13876415+13722597+13138176+12388390+11653098
3680.05+10969044+10353853+9871395+9608527+9629084+9953772+10568317+11445070
3687.77+12525245+13637350+14442183+14671154+14427893+14006050+13614587+13333501
3695.48+13174848+13119268+13133912+13187681+13261485+13344490+13427499+13498399
3703.20+13555204+13618071+13730094+13946620+14323845+14880624+15505884+15819266
3710.91+15219478+13485267+11295498+9552997+8634644+8506498+9027203+10057538
3718.63+11459976+13079525+14753107+16338551+17744024+18922632+19828516+20390108
3726.34+20566428+20420144+20114702+19822860+19674066+19735118+20000184+20330270
3734.06+20386308+19749386+18346044+16612672+15045320+13848108+12997634+12398691
3741.77+11951554+11564668+11170770+10782537+10524490+10535982+10858528+11418768
3749.49+11974743+12037552+11210373+9789089+8434023+7488382+6969313+6765995
3757.20+6717949+6635212+6366845+5915018+5434081+5079166+4912231+4915826+5038481
3765.88+5221086+5412517+5562104+5597704+5433043+5046844+4530100+4033199+3669414
3774.56+3493925+3514206+3702454+3984105+4236591+4339963+4278318+4157352+4096875
3783.24+4132105+4204182+4215311+4105244+3892070+3644400+3422593+3269027+3215184
3791.92+3288413+3517889+3907836+4434369+5037898+5641151+6195062+6701447+7151797
3800.60+7436043+7372700+6936395+6352290+5837016+5429586+5050297+4629012+4197860
3809.28+3862607+3705560+3755172+4008213+4449697+5045908+5726950+6384447+6941105
3817.96+7405307+7801826+8041690+7933983+7426770+6773852+6257321+5946647+5763224
3826.64+5602778+5410927+5204836+5047101+5003666+5123668+5425455+5892177+6488232
3835.32+7171263+7881932+8494273+8803431+8655734+8102140+7326231+6485910+5664973
3844.00+4933636+4378460+4082819+4097679+4432668+5061753+5929792+6941735+7906498
3852.68+8437201+8114926+7111130+6060662+5285486+4803578+4590499+4643487+4957815
3861.36+5478079+6067365+6513803+6654304+6540538+6399406+6420315+6641197+6953173
3870.04+7152068+7063917+6672979+6087288+5431411+4830342+4401864+4214553+4267646
3878.71+4514468+4878250+5271194+5621089+5890457+6040766+6007865+5762890+5406077
3887.39+5130465+5072314+5236933+5507288+5674491+5553373+5161949+4722401+4453727
3896.07+4468128+4786578+5370051+6117548+6881569+7518010+7916465+7967331+7572170
3904.75+6753065+5727586+4767202+4035364+3561112+3305579+3215184+3253812+3428378
3913.43+3742522+4169662+4630848+4996534+5145770+5058805+4850386+4681737+4646353
3922.11+4724642+4810587+4784588+4612811+4398065+4304757+4431926+4754014+5127041
3930.79+5345615+5255389+4867766+4354970+3906938+3620339+3495446+3493894+3581869
3939.47+3740499+3946174+4148860+4279039+4293133+4220097+4139187+4111224+4140141
3948.15+4180997+4179448+4113944+4000600+3872667+3757133+3671143+3625580+3620440
3956.83+3643326+3675484+3699069+3703193+3678941+3618548+3526307+3427237+3354115
3965.51+3334957+3372205+3448947+3539592+3626068+3703169+3777031+3846490+3900895
3974.19+3919155+3888063+3809707+3701123+3583853+3472034+3373890+3298217+3251150
3982.87+3232227+3228939+3225072+3215184+3175374+3157684+3176361+3234189+3323758
3991.55+3430247+3530263+3593330+3591869+3520547+3404855+3290325+3215184
##END=
