##TITLE=Default
##JCAMP-DX=4.24
##DATA TYPE=INFRARED SPECTRUM
##DATE=19/9/2016
##SAMPLING PROCEDURE=ATR
##ORIGIN=Default
##XUNITS=1/CM
##YUNITS=ABSORBANCE
##RESOLUTION=4
##FIRSTX=599.84104
##LASTX=3998.2974
##DELTAX=0.96437467
##MAXY=2
##MINY=1.7347235e-018
##XFACTOR=1
##YFACTOR=1.8626452e-009
##NPOINTS=3525
##FIRSTY=0.017253745
##XYDATA=(X++(Y..Y))
599.84+9263034+9662998+9642550+9490403+9623805+10203911+10911172+11032402
607.56+9947087+7556147+4447886+1617302+0+47876+1558066+3761480+5691515+6627929
617.20+6462474+5726326+5342672+6287525+9330628+14832751+22505748+31382450
624.91+40072680+47405112+52965496+57189380+60936296+64868060+69041432+72961104
632.63+76046032+78223848+80164144+82888880+87031376+92415432+98296056+103970648
640.34+109192048+114107856+118958672+123878864+128981024+134450896+140508000
647.10+147176064+154105648+160666352+166316512+170968880+175051504+179182640
653.85+183725424+188563008+193211680+197178336+200281328+202724480+204890688
660.60+207055680+209325184+211880976+215345024+220912864+230200368+244425216
667.35+262099712+276683392+281337248+277408896+271261152+267212256+266473632
674.10+268476896+271906784+275472896+278441472+280688672+282423456+283904736
680.85+285295200+286592736+287614720+288061312+287656096+286254976+283871392
687.60+280594208+276514688+271679456+266125680+259931184+253264384+246375952
694.35+239509648+232814976+226308240+219924688+213614320+207411824+201409808
701.10+195687088+190239216+184979024+179812240+174716768+169794752+165206944
707.85+161067200+157348368+153898272+150538992+147194640+143953632+141028384
714.60+138696688+137213552+136712896+137067296+137793056+138160272+137557968
721.35+135914912+133782048+131953568+130953984+130751528+130836568+130513976
728.10+129193984+126562816+122616248+117601320+111891096+105842344+99687528
734.85+93529064+87425336+81488272+75908128+70916128+66689928+63275872+60559984
742.57+58328740+56374564+54605276+53057108+51829832+50985760+50483228+50170656
750.28+49814716+49163444+48025952+46343652+44226780+41918488+39693692+37747712
758.00+36141568+34824544+33709692+32748080+31937442+31251684+30584226+29761820
765.71+28645346+27230662+25663102+24138426+22797098+21681354+20784944+20114888
773.43+19709448+19593614+19711396+19905292+19947040+19644774+18934106+17919672
781.14+16811068+15811279+15030461+14474455+14084918+13792187+13543071+13325156
788.86+13183234+13202140+13447442+13901895+14448448+14920063+15179240+15156641
796.57+14845815+14279301+13516496+12637858+11725828+10852788+10087793+9521035
804.29+9239867+9255001+9425892+9480260+9158438+8385125+7331457+6287525+5008355
812.97+3962679+3040627+2174931+1448480+1044499+1100368+1599329+2385259+3263208
821.65+4096406+4838234+5505530+6138746+6770825+7403230+7996765+8479903+8782047
830.33+8866884+8763099+8548065+8321224+8153132+8052552+7970190+7829201+7579030
839.01+7223980+6823245+6457606+6192464+6055329+6022749+6035935+6035712+6005506
847.69+5984631+6020660+6105030+6145156+6011673+5648751+5120396+4580537+4156940
856.36+3877253+3690336+3561112+3531170+3701473+4133124+4787397+5543040+6287525
865.04+6151689+6012890+5931380+5940022+6038471+6221047+6481645+6801924+7130014
873.72+7395764+7533711+7525211+7390186+7174482+6928389+6706741+6552931+6485296
882.40+6488441+6519925+6555324+6612126+6736379+6947641+7210084+7438223+7568198
891.08+7620211+7704460+7963313+8476820+9223943+10104813+11039990+12045093
898.80+13236161+14759152+16662856+18817358+20927962+22634282+23639324+23805732
906.51+23180914+21969906+20450302+18915118+17616250+16735095+16382784+16594917
914.23+17336238+18513816+20011570+21713974+23541016+25451820+27440118+29516540
921.94+31693884+33984672+36409896+39025036+41939604+45303676+49257816+53841824
929.66+58927548+64161852+68976696+72660968+74503328+73984768+70943712+65659872
937.37+58778000+51129084+43518932+36568920+30639688+25832918+22050544+19066130
945.09+16624941+14533812+12716224+11191913+10008250+9153529+8536644+8023969
952.80+7510544+6955573+6382201+5851513+5431242+5182715+5129606+5248727+5472403
961.48+5736510+6006642+6287525+6560497+6856819+7169613+7510869+7915336+8423446
970.16+9050536+9779827+10575069+11408733+12265828+13140714+14035439+14953353
977.88+15901938+16884524+17891514+18913314+19952356+21029942+22172788+23382174
985.59+24620286+25815918+26915616+27909380+28844658+29797748+30832428+31980570
993.31+33236838+34580236+35987068+37448652+38967728+40556084+42224628+43988520
1001.02+45857756+47842708+49938360+52108968+54292420+56408684+58387632+60192216
1008.74+61830432+63357196+64841928+66344228+67884384+69465736+71123752+72946960
1016.45+75053952+77521152+80348472+83451800+86713240+89995416+93141472+95988432
1024.17+98421624+100426496+102118880+103692016+105336480+107170056+109208464
1030.92+111388448+113620200+115853984+118131056+120573664+123308680+126353952
1037.67+129565856+132662576+135321232+137273440+138356624+138529760+137862000
1044.42+136525664+134753648+132793928+130873768+129176112+127845312+126980936
1051.17+126616048+126709712+127156152+127831864+128638464+129521912+130468736
1057.92+131486640+132586320+133773080+135038032+136351264+137670256+138929168
1064.67+140047968+140940784+141542048+141839680+141895888+141823120+141752864
1071.42+141790096+142004416+142416032+142990880+143633168+144217232+144643536
1078.17+144891872+145021920+145114240+145202352+145245696+145162256+144895968
1084.92+144445056+143854336+143178992+142456992+141719904+141007184+140369328
1091.67+139838336+139412992+139059008+138749712+138490304+138303088+138200256
1098.42+138155248+138125520+138090608+138076192+138124736+138269216+138503536
1105.17+138807776+139166448+139577952+140032832+140510960+140985760+141460528
1111.92+141979952+142624992+143454976+144481312+145654208+146888480+148103344
1118.67+149241024+150282128+151222096+152061392+152799792+153426496+153939312
1125.43+154357232+154739968+155175376+155768160+156618176+157811648+159428400
1132.18+161534720+164157184+167237104+170612512+174025008+177178576+179815888
1138.93+181799872+183153184+184052416+184767600+185553968+186559936+187771744
1145.68+189043824+190177472+191022528+191518192+191703216+191681168+191562384
1152.43+191435344+191343424+191306080+191349136+191536032+191964464+192732688
1159.18+193899008+195471408+197425856+199739984+202402464+205412272+208762928
1165.93+212441824+216434192+220725568+225301520+230146432+235229040+240491616
1172.68+245834512+251111792+256147680+260752160+264729152+267889488+270074368
1179.43+271203808+271331008+270649632+269460960+268108016+266928720+266234096
1186.18+266290224+267314208+269450944+272768288+277286112+282990080+289821504
1192.93+297592736+305890976+314024704+321079520+326101184+328344672+327493408
1199.68+323753056+317780576+310491744+302815168+295488832+288969792+283455936
1206.43+278990496+275555648+273122176+271641472+271041856+271214880+272033376
1213.18+273374464+275147360+277312640+279878400+282871392+286306880+290172512
1219.93+294405984+298868736+303311968+307397632+310795648+313328064+315074880
1226.68+316351936+317579680+319099136+321061472+323412320+325963776+328489536
1233.44+330813888+332837760+334527328+335873984+336877600+337539488+337874528
1240.19+337913280+337706752+337310240+336771360+336110656+335325632+334407264
1246.94+333368896+332257952+331136384+330054048+329027904+328056320+327139904
1253.69+326311104+325639712+325224096+325155616+325485664+326208192+327264160
1260.44+328576128+330088864+331791104+333704192+335850112+338213952+340733216
1267.19+343307296+345816672+348131328+350107104+351578208+352365984+352300320
1273.94+351236608+349061184+345704896+341169280+335554048+329057536+321956064
1280.69+314560928+307192608+300134432+293588352+287647680+282308736+277531136
1287.44+273287648+269576000+266403984+263756416+261601616+259897264+258601952
1294.19+257669008+257045872+256668208+256465648+256367808+256309312+256234448
1300.94+256077856+255770544+255260512+254532144+253616768+252564000+251418864
1307.69+250223168+249026048+247881600+246807056+245764672+244684736+243536032
1314.44+242359968+241233984+240190768+239187344+238141120+237012416+235864112
1321.19+234837200+234079360+233681504+233650288+233914512+234357264+234867120
1327.94+235364640+235822800+236257840+236729568+237334592+238184080+239382576
1334.69+241002912+243060928+245457488+247899472+249910704+251068304+251366448
1341.45+251263776+251278048+251686064+252518432+253687616+255091936+256653104
1348.20+258325248+260088960+261951744+263941232+266082688+268374944+270776768
1354.95+273228192+275702880+278253408+281005120+284110432+287690560+291762976
1361.70+296154272+300485632+304416832+307934528+311296800+314725792+318210944
1368.45+321520672+324376160+326642304+328305920+329267808+329246432+328013152
1375.20+325791808+323236896+320934912+319086048+317630272+316482304+315665600
1381.95+315288480+315433792+316052832+316897856+317504736+317317664+316070560
1388.70+314105728+312105728+310548032+309532128+308897120+308390528+307792288
1395.45+307018912+306108864+305097664+304009664+302978048+302285024+302194240
1402.20+302815296+304092736+305873344+308003200+310468160+313499456+317498624
1408.95+322886144+329933056+338597696+348423744+358641984+368413696+376987968
1415.70+383532416+386715168+384627296+376323744+364271264+352945920+344635104
1422.45+338907264+334647136+331321120+329078176+328258592+328996960+331204608
1429.20+334670048+339035424+343827648+348672736+353506912+358502496+363808224
1435.95+369176960+373840096+377148192+379253760+380748288+382067424+383406688
1442.70+384853120+386461824+388260992+390215712+392225408+394176288+396047808
1449.46+397968896+400140864+402712160+405730304+409176704+413019520+417186368
1456.21+421283328+424298752+425619616+426309888+427572832+429637248+432111680
1462.96+434118016+434254176+431221952+425256736+418356800+412516608+408635968
1469.71+406936512+407525504+410237056+413582112+414361376+410258144+402028128
1476.46+391826848+381340832+371433536+362391840+354296000+347397728+342241952
1483.21+339393600+339098752+341254848+345664736+352332160+361487392+372919008
1489.96+385010240+395669920+404425984+412334208+420811424+431173856+444422976
1496.71+460555040+477809888+493724384+507301120+519052032+529702624+539701439
1503.46+549530879+560324223+574807103+597280383+626984447+651959359+666488255
1510.21+675857855+684514239+693843071+703939711+714808831+726731583+739875199
1516.96+753563967+766494463+778285759+790370111+804703167+821174527+836965759
1523.71+850053119+861291199+872271487+883225791+893143167+901236991+907680959
1530.46+912948863+916968383+918899775+917929663+914667455+910926527+907875327
1537.21+905309823+901775615+894111359+877916479+853527871+828869951+807956095
1543.96+789488959+772932095+758651455+746267263+734458367+721795199+707753535
1550.71+693126015+679237951+666691519+655219007+644524735+634658751+624848447
1557.47+610881599+585613439+552848511+528506528+515275168+506828928+498796416
1564.22+489707008+479860224+470128416+460719808+450670464+438839104+425920000
1570.97+414520544+406357920+400937088+396563104+391246560+383506528+374012480
1577.72+365455712+359385760+355368672+352551392+350465728+349000896+348195712
1584.47+348122368+348849312+350440192+352936736+356345248+360641344+365777184
1591.22+371702592+378406304+385941600+394372224+403663776+413639968+424143808
1597.97+435233664+447223776+460535680+475463328+491980320+509704960+528103872
1604.72+546837247+565962495+585838655+606813439+628862143+651444351+673732479
1611.47+695089791+715457471+735611135+757415615+783609087+815547135+849399167
1618.22+878351039+900190783+917767103+934802303+953608319+974082687+993809279
1624.97+1010439551+1023876415+1035416511+1045911423+1055156607+1062553151
1630.76+1067935807+1071617471+1073741823+1073438271+1068084415+1054489343
1636.54+1034146431+1013892223+997317183+983176639+969673087+956266239+943327999
1643.29+931115903+918640511+902793983+879420223+849240255+821272319+802310783
1650.05+790607999+780176831+762550911+729343487+686876927+654057151+634276607
1656.80+620499839+608039487+595245503+581465471+565766079+547004031+525460608
1663.55+504060096+486174912+472671584+462022656+451673568+438896544+422222464
1670.30+403620352+387031808+373786336+362159456+350001376+336689632+323532256
1677.05+312250848+303312128+296060640+289660128+283474016+276623200+267244224
1683.80+253330560+236626592+222323936+212192848+204129504+195877536+186745632
1690.55+177578192+169617808+163304576+158081136+152883616+146774768+139517408
1697.30+131529568+122836880+112806960+101778576+91725112+84138656+78639880
1704.05+73850008+68555088+62446572+56292420+51110808+47275912+44566536+42677660
1711.77+41512560+41137876+41569172+42474264+42879880+41309028+37265680+32410466
1719.48+28541856+26041202+24527452+23530066+22685428+21840764+21096096+20682134
1727.20+20755924+21311104+22234778+23416708+24752086+25980704+26505042+25740910
1734.91+24035226+22409078+21369944+20802172+20455090+20189046+19973028+19799834
1742.63+19643036+19499774+19421408+19474224+19661074+19856818+19740050+18831422
1750.34+16876298+14293405+11895532+10221464+9330983+9002275+8935203+8923107
1758.06+8912452+8916687+8868010+8590205+7967208+7132763+6421222+6103225+6287525
1766.73+6829945+7768692+8955241+10224989+11357089+11969425+11625198+10332121
1774.45+8692057+7351353+6600081+6425923+6648991+7020681+7310917+7393381+7290377
1783.13+7098788+6893796+6701396+6558443+6578076+6930265+7740509+8972418
1790.84+10317793+11241123+11365883+10877628+10259952+9830472+9670849+9771317
1798.56+10058996+10344962+10352539+9910567+9127202+8311461+7729823+7493006
1806.27+7588646+7935901+8407993+8840395+9054578+8917975+8427803+7717834+7002297
1814.95+6483029+6287525+6307568+6574236+6985657+7520160+8218063+9096271
1822.67+10076047+11001167+11736138+12261730+12674763+13054959+13333986+13278858
1830.38+12690937+11671298+10586749+9780659+9388545+9351183+9487466+9619758
1838.10+9708642+9875786+10295742+11076571+12200161+13462647+14451546+14756089
1845.81+14322967+13449369+12444195+11463800+10582463+9888095+9478860+9395803
1853.53+9589491+9946281+10365654+10791635+11189646+11518548+11735748+11826087
1861.24+11840699+11870464+12051382+12523798+13396397+14652822+16039981+17019336
1868.96+17055984+16125878+14750789+13486437+12613352+12180179+12114781+12290851
1876.67+12570370+12852476+13098300+13309840+13497377+13653769+13750991+13760464
1884.39+13702197+13668223+13789458+14138225+14630532+15043119+15180964+15081506
1892.10+14972325+15054130+15336078+15646068+15756760+15545772+15050889+14420843
1899.82+13848334+13513682+13524013+13862174+14402454+14989112+15522078+15978184
1907.53+16347110+16590799+16642311+16468752+16126771+15755370+15520653+15543566
1915.25+15853261+16364004+16915126+17367626+17702892+17983254+18221004+18311150
1922.96+18120942+17638402+17024358+16476729+16079864+15790541+15530111+15275128
1930.68+15076480+15013628+15127155+15394214+15738193+16071040+16348723+16605831
1938.39+16949318+17485306+18223600+19008922+19565166+19679936+19370078+18839664
1946.11+18311886+17930048+17765896+17860602+18190154+18628712+18954586+18943170
1953.82+18508074+17771840+17047732+16673440+16838474+17487676+18363798+19159690
1961.54+19686164+19935128+20018996+20057358+20125488+20244270+20420284+20640664
1969.25+20864486+21041378+21166762+21305312+21591846+22183834+23198498+24627798
1976.97+26310224+27944506+29209222+29889010+29953810+29531470+28834540+28076376
1984.68+27427810+27015450+26946112+27276808+27970066+28833404+29538636+29743918
1992.40+29302402+28365040+27277422+26345918+25711368+25364198+25217838+25162000
2000.11+25077518+24863006+24460350+23905100+23341328+22975450+22960586+23299868
2007.83+23842760+24405180+24887760+25291904+25618736+25814970+25807820+25603882
2015.54+25345530+25225244+25367318+25748294+26243594+26715742+27060142+27231206
2023.26+27235800+27129504+26976510+26805762+26639028+26519000+26554816+26875414
2030.97+27565664+28606234+29863470+31100096+32027270+32411040+32222586+31667898
2038.69+31099224+30802440+30864948+31162014+31492360+31753328+32030656+32540908
2046.40+33470626+34772708+36079152+36838440+36645788+35501324+33804808+32087118
2054.12+30727584+29819632+29262972+28946834+28844806+28969768+29271010+29609242
2061.83+29830540+29879272+29819362+29788122+29895334+30189744+30647868+31203814
2069.55+31756382+32178808+32361206+32260246+31946210+31577142+31333118+31334264
2077.26+31578000+31946484+32262798+32381812+32248734+31901154+31440630+30991620
2084.98+30683704+30600856+30718972+30868340+30805264+30349158+29533098+28599118
2092.69+27877916+27611756+27856154+28479364+29255116+29970794+30526902+30930552
2100.41+31246496+31503108+31668836+31689482+31564180+31366916+31208080+31157902
2108.12+31210366+31304982+31375796+31370060+31261402+31037782+30706096+30307074
2115.84+29916974+29594262+29338056+29058368+28631414+27994780+27214444+26439676
2123.55+25798772+25295104+24821846+24251872+23527988+22682592+21810460+21050344
2131.27+20581534+20586990+21160848+22201154+23406240+24420116+25018470+25202300
2138.98+25106118+24863068+24536728+24182362+23925050+23931086+24286618+24888948
2146.70+25484192+25806622+25705562+25169020+24279016+23140490+21864342+20609996
2154.41+19669970+19519304+20758252+23806320+28476752+33782152+38340376+41155252
2162.13+42151548+41992344+41488692+41083336+40739764+40169624+39166536+37764364
2169.84+36207660+34791180+33735048+33124482+32931494+33015220+33151432+33093790
2177.56+32720446+32149590+31722144+31779188+32423678+33445350+34477556+35238008
2185.27+35633052+35686692+35464336+35035728+34514228+34036668+33705708+33532200
2192.99+33473984+33501802+33627688+33864564+34171720+34439312+34553172+34467408
2200.70+34253156+34058984+34015964+34161936+34435832+34753628+35055096+35277688
2208.42+35321000+35052780+34436080+33624188+32918520+32590816+32718680+33157072
2216.13+33672348+34068092+34262816+34254500+34066648+33712768+33209538+32609166
2223.85+32028080+31606724+31448796+31557718+31859832+32272612+32745348+33231598
2231.56+33636180+33836616+33773528+33510580+33209522+33007674+32962658+33060712
2239.28+33286640+33620964+34011224+34362800+34594804+34700920+34755980+34848896
2246.99+35004628+35169544+35261896+35228332+35089500+34936340+34894176+35059088
2254.71+35449444+35992160+36563912+37059404+37427540+37676892+37853368+38018652
2262.42+38247372+38608128+39133104+39796784+40511392+41157748+41637036+41903544
2270.14+41980776+41933932+41833672+41741456+41708980+41779312+41968852+42236800
2277.85+42488396+42609012+42549812+42366532+42206812+42258768+42665756+43480724
2285.57+44649280+46035708+47481184+48894028+50285984+51762396+53442496+55381524
2293.28+57529956+59770744+61993820+64164556+66325584+68545648+70841576+73155656
2301.00+75428352+77699520+80173552+83156688+86909360+91496656+96756264
2307.75+102352696+107911176+113103576+117722936+121725808+125274880+128733000
2314.50+132569512+137220992+142968544+149896080+157906368+166733584+175933520
2321.25+184887312+192908896+199504176+204611008+208645760+212275760+216079584
2328.00+220280320+224645056+228621552+231685680+233710736+235070416+236363712
2334.75+238031232+240179024+242722944+245605760+248830224+252249872+255334624
2341.50+257049296+255899616+250235168+239263392+224337216+208885376+196599728
2348.25+189845984+189516400+195576032+207427888+223907200+243275904+263562688
2355.00+283163776+301027328+316328960+328276288+336389632+340699424+341538816
2361.75+339218112+333979936+326050816+315713472+303294496+289168480+273757248
2368.50+257475584+240696752+223730848+206841136+190242992+174114288+158612256
2375.25+143865312+129953168+116888680+104639952+93170264+82466216+72542904
2382.01+63441616+55232780+48023908+41924156+36998632+33219600+30462012+28537966
2389.72+27257526+26473360+26084772+25995806+26086542+26221060+26294056+26279774
2397.44+26240596+26269524+26419784+26675362+26979894+27284436+27568110+27823452
2405.15+28032720+28169004+28221698+28204256+28148170+28080058+28010522+27944992
2412.87+27897208+27897234+27983698+28182382+28487270+28856312+29229682+29556396
2420.58+29812410+29996552+30117130+30182436+30199350+30184474+30156996+30134388
2428.30+30129250+30138998+30159918+30178262+30192026+30204356+30239592+30329526
2436.01+30499936+30770880+31138924+31583192+32047556+32450360+32719396+32834292
2443.73+32851206+32862388+32948930+33128018+33355248+33568448+33736956+33869644
2451.44+33989440+34099492+34168276+34157104+34057376+33901196+33742448+33622672
2459.16+33548466+33499184+33465094+33456218+33498064+33600368+33747660+33897536
2466.87+34020480+34111040+34193580+34289872+34394200+34466996+34475888+34434052
2474.59+34396228+34424316+34526924+34656464+34750760+34781724+34767396+34737876
2482.30+34712376+34690312+34671684+34680292+34753380+34921332+35190176+35527548
2490.02+35876116+36178844+36396724+36529752+36601420+36624644+36595692+36511112
2497.73+36401312+36331932+36367768+36519720+36735888+36938588+37071916+37137860
2505.45+37171120+37218140+37298708+37397916+37483652+37516048+37493968+37446080
2513.16+37428016+37484216+37633892+37862432+38132852+38401564+38625548+38774680
2520.88+38840928+38836336+38781264+38704392+38648748+38656776+38758584+38949880
2528.59+39189660+39421416+39605280+39728908+39807208+39867156+39934852+40030944
2536.31+40155156+40287112+40400716+40472716+40491072+40453192+40364244+40250052
2544.02+40166848+40185776+40350436+40645064+41005128+41359196+41669384+41937400
2551.74+42175580+42381632+42530004+42600304+42606032+42589652+42599400+42651328
2559.45+42714744+42748024+42729068+42679684+42640928+42649236+42712648+42824860
2567.17+42976104+43155484+43344628+43522300+43658344+43741284+43774284+43775416
2574.88+43779420+43821600+43926940+44094004+44296100+44507100+44720112+44951240
2582.60+45211648+45482708+45715576+45862596+45920872+45922572+45925700+45972780
2590.31+46082180+46250744+46467272+46710816+46951496+47160012+47320280+47444068
2598.03+47565840+47710608+47874332+48020256+48099520+48091452+48021612+47950332
2605.74+47936796+48001412+48117736+48236084+48312192+48330836+48298340+48224192
2613.46+48123312+48022444+47964388+47997400+48150780+48413348+48737996+49051452
2621.17+49275856+49363468+49316016+49182936+49039516+48950128+48936876+48982536
2628.89+49051760+49120400+49178992+49233560+49280944+49297572+49244956+49100680
2636.60+48894340+48705544+48619036+48666412+48801704+48942180+49034956+49090668
2644.32+49154716+49252380+49359820+49424152+49412624+49334728+49233836+49146460
2652.03+49086376+49041812+48991792+48923664+48823660+48683424+48500964+48284332
2659.75+48053916+47839892+47668096+47544568+47454068+47366152+47265892+47153288
2667.46+47049020+46975764+46941848+46942688+46968800+47021620+47119528+47277176
2675.18+47496280+47760784+48043400+48330912+48618148+48895348+49137224+49312748
2682.89+49408968+49453188+49491372+49563168+49681232+49833488+49995236+50155828
2690.61+50309828+50455204+50589960+50712068+50824396+50926972+51022068+51110268
2698.32+51205656+51323180+51472316+51642440+51816016+51974944+52122956+52272400
2706.04+52433356+52600348+52764764+52931764+53126944+53381948+53713736+54103064
2713.75+54510820+54892732+55222604+55498420+55734548+55944504+56135200+56305184
2721.47+56457052+56612664+56806828+57079560+57456476+57934724+58476048+59010240
2729.18+59468776+59815932+60067800+60275344+60492400+60743156+61018100+61294220
2736.90+61568924+61854000+62162712+62496504+62849916+63222356+63619604+64040804
2744.61+64454844+64802908+65030232+65118068+65112808+65102648+65174924+65384396
2752.33+65731360+66173200+66638432+67070260+67436664+67745712+68026224+68297528
2760.04+68559328+68793728+68998728+69189608+69398648+69656456+69967368+70314080
2767.76+70667144+70989088+71249576+71436488+71572032+71700088+71877192+72135424
2775.47+72472744+72858288+73254272+73641312+74031576+74447576+74899408+75362264
2783.19+75787016+76135280+76413640+76670360+76956552+77304024+77713920+78170672
2790.90+78657224+79164360+79684544+80216352+80760352+81319176+81893088+82466488
2798.62+83019424+83540296+84036064+84536504+85069696+85648104+86250008+86830280
2806.33+87342880+87770976+88144960+88540688+89045640+89712848+90531088+91427712
2814.05+92312600+93131576+93885440+94616808+95366552+96143400+96922104+97672776
2821.76+98382656+99067976+99751632+100442080+101137832+101836024+102561040
2828.51+103354120+104247848+105235336+106267480+107290560+108288248+109304760
2835.26+110442496+111827864+113580408+115778008+118436440+121512736+124942632
2842.01+128681920+132736272+137153376+141977808+147234560+152912480+158959568
2848.76+165273360+171699248+178052400+184151104+189854128+195046864+199628928
2855.51+203507776+206611936+208921104+210474896+211354240+211654208+211463216
2862.26+210867520+209962320+208872000+207742704+206713136+205871088+205217344
2869.01+204683616+204162960+203555168+202781328+201781376+200494896+198859360
2875.77+196817328+194344192+191466048+188272640+184906784+181542448+178349024
2882.52+175465376+172994032+170988896+169464976+168394704+167726832+167411472
2889.27+167414336+167730464+168376096+169375216+170738960+172458480+174501456
2896.02+176824640+179390064+182164192+185115712+188205984+191397072+194653680
2902.77+197956336+201293920+204648944+207992096+211285312+214498128+217628912
2909.52+220721856+223865648+227169856+230727824+234584640+238731184+243118240
2916.27+247679088+252340816+257026928+261665136+266205936+270635552+274974432
2923.02+279244928+283436000+287498816+291368064+294991296+298351840+301431936
2929.77+304159168+306380832+307879552+308442848+307944448+306378592+303863712
2936.52+300577760+296714432+292436576+287866720+283098848+278205056+273245312
2943.27+268250512+263211120+258082000+252814000+247390240+241843552+236248736
2950.02+230710688+225343008+220254416+215529280+211205488+207266176+203657328
2956.77+200314736+197180368+194210016+191379984+188679088+186088208+183564304
2963.52+181023184+178367824+175532000+172521392+169410272+166290928+163225952
2970.27+160225328+157259792+154302288+151356048+148462960+145678592+143033760
2977.02+140519232+138115728+135827152+133696648+131777136+130078864+128545272
2983.78+127081920+125609992+124102648+122578616+121077504+119630776+118266064
2990.53+117021720+115936360+115032304+114293720+113666704+113099712+112578456
2997.28+112146856+111884000+111849776+112054640+112445992+112935392+113423968
3004.03+113835216+114131232+114319608+114447456+114577632+114762800+115028904
3010.78+115375648+115798680+116295696+116869616+117520784+118234936+118995512
3017.53+119808928+120706712+121721232+122847328+124027608+125184296+126271800
3024.28+127310240+128352408+129433912+130544000+131646736+132720504+133771416
3031.03+134821120+135887120+136990208+138157856+139410928+140729280+142043328
3037.78+143274560+144391040+145440400+146519568+147713280+149060272+150553104
3044.53+152158128+153831760+155522416+157163744+158713424+160167520+161570320
3051.28+162982048+164435376+165920016+167396016+168828000+170198864+171503008
3058.03+172728512+173862112+174888144+175793776+176554880+177127936+177477552
3064.78+177619008+177641328+177674864+177827520+178124992+178524512+178939408
3071.53+179277040+179463072+179458880+179283840+179009424+178730320+178507856
3078.28+178333168+178148160+177885920+177519280+177072240+176593360+176126320
3085.03+175683520+175251648+174798624+174325872+173871776+173513136+173298912
3091.79+173200432+173103152+172847392+172315680+171491888+170470976+169419408
3098.54+168499328+167799216+167295456+166868224+166373984+165723616+164932464
3105.29+164093552+163311808+162659536+162154864+161770736+161457152+161169168
3112.04+160880016+160584720+160296800+160025328+159776208+159562352+159412512
3118.79+159365776+159443872+159632976+159895216+160188640+160495584+160814288
3125.54+161150928+161503184+161877184+162279424+162734016+163262128+163869104
3132.29+164535824+165222624+165880096+166472384+166987376+167456224+167941584
3139.04+168524704+169263856+170156768+171144928+172143024+173095056+173991040
3145.79+174852112+175692688+176511056+177307408+178104784+178959808+179937952
3152.54+181077104+182369664+183757024+185164576+186530896+187842048+189122224
3159.29+190404816+191704624+193018080+194346352+195717648+197179296+198768160
3166.04+200479536+202268000+204067824+205827072+207522608+209157888+210747728
3172.79+212306288+213842224+215363200+216881360+218404448+219934016+221463440
3179.54+222982944+224487120+225976320+227452272+228919712+230369712+231784080
3186.29+233147296+234465216+235779312+237145712+238591664+240094464+241596544
3193.04+243051264+244451424+245810432+247128832+248380560+249530256+250575488
3199.80+251561040+252549760+253584832+254663600+255757552+256839152+257930320
3206.55+259097296+260407024+261866816+263396720+264856816+266125168+267160144
3213.30+268021376+268821472+269676704+270660128+271787168+273041376+274397920
3220.05+275838784+277358048+278941952+280575744+282236640+283915584+285598112
3226.80+287256800+288849088+290336864+291719392+293054016+294431008+295951616
3233.55+297699744+299719168+302000000+304480480+307064352+309645664+312152864
3240.30+314554880+316855232+319087744+321292736+323525216+325855680+328351936
3247.05+331058304+333963968+336998144+340056544+343053120+345956864+348817504
3253.80+351735744+354802752+358053504+361445888+364887296+368278432+371562048
3260.55+374737024+377841824+380920992+383986464+387001216+389881888+392542272
3267.30+394950208+397177472+399385440+401759744+404411936+407338144+410447488
3274.05+413639456+416859264+420092448+423331200+426556640+429752576+432914880
3280.80+436052832+439170368+442259776+445312480+448328448+451307296+454233344
3287.55+457071200+459786464+462376544+464864672+467263616+469542752+471611232
3294.30+473357248+474676192+475499328+475767008+475420192+474400032+472656480
3301.05+470179328+467012704+463255936+459036512+454452224+449524640+444195040
3307.81+438387904+432081664+425344448+418307104+411133504+403981696+396984480
3314.56+390217440+383668736+377255424+370885888+364540576+358292576+352269568
3321.31+346584128+341269984+336292768+331591104+327114304+322843808+318755072
3328.06+314805536+310945600+307159456+303479232+299959712+296620832+293421664
3334.81+290293472+287185216+284104288+281110912+278266336+275602752+273106336
3341.56+270757600+268554208+266507984+264615392+262812672+260990560+259047744
3348.31+256972720+254850704+252816752+250970096+249326704+247836976+246438912
3355.06+245083712+243753984+242445584+241149168+239846848+238518928+237160384
3361.81+235783712+234411632+233063232+231740544+230449808+229199936+228000416
3368.56+226842880+225700256+224557904+223422048+222322784+221288320+220321536
3375.31+219406096+218511648+217625360+216755616+215939488+215217056+214608144
3382.06+214081856+213559472+212951088+212202112+211330736+210411440+209543056
3388.81+208787216+208129360+207496528+206810080+206058848+205307168+204628496
3395.56+204027200+203426016+202744640+201979904+201217616+200561136+200044160
3402.31+199605104+199133840+198540688+197811232+196998768+196185888+195443808
3409.06+194804144+194265056+193802624+193388400+192979232+192526064+192004416
3415.82+191443536+190914608+190472288+190100624+189689712+189106064+188292208
3422.57+187312624+186301680+185364976+184517280+183707488+182887232+182054720
3429.32+181255696+180533136+179896432+179325856+178803056+178316576+177863120
3436.07+177427408+176993184+176551936+176103984+175641920+175154304+174647008
3442.82+174169216+173777104+173465680+173124832+172573632+171680960+170485520
3449.57+169170128+167942112+166925728+166149616+165585456+165189984+164927312
3456.32+164765440+164663776+164562096+164392288+164086512+163605120+162940576
3463.07+162133440+161256320+160386688+159572080+158836832+158201728+157687840
3469.82+157304816+157032928+156810352+156565504+156242960+155828960+155347888
3476.57+154846352+154379744+153968848+153585264+153148368+152574128+151834752
3483.32+150994448+150147568+149355296+148614688+147873904+147081440+146215680
3490.07+145308832+144441952+143708848+143168832+142809264+142526320+142175264
3496.82+141680144+141096544+140588688+140302976+140235792+140182368+139819232
3503.57+138940848+137655808+136296416+135157168+134319360+133673376+133014072
3510.32+132173448+131105504+129894376+128683272+127602448+126708312+125983600
3517.07+125373464+124862136+124497904+124354432+124430520+124592496+124621696
3523.83+124334952+123712816+122868656+121914952+120862200+119647672+118253152
3530.58+116774168+115379944+114206936+113286968+112536792+111789072+110872472
3537.33+109730816+108491624+107399008+106680256+106446880+106648032+107072280
3544.08+107373536+107173488+106256384+104749640+103060496+101564944+100393728
3550.83+99418584+98379672+97071168+95507808+93922104+92577560+91612456+91021360
3558.54+90688208+90478216+90314496+90242696+90414872+90980784+91927872+92902312
3566.26+93118544+91806368+89098568+85979912+83273472+81209864+79684736+78508688
3573.97+77517136+76622640+75828312+75185392+74714544+74358992+74020440+73656008
3581.69+73345168+73267352+73615496+74470376+75646376+76548592+76377912+74952936
3589.40+73073680+71677368+71138400+71326608+71838720+72188480+72041584+71421672
3597.12+70608424+69818056+69003656+67929336+66439708+64688100+63087420+62017644
3604.83+61609952+61692376+61844604+61563328+60592140+59156556+57726592+56618460
3612.55+55865504+55342744+54940820+54656540+54532904+54537204+54475524+54085156
3620.26+53304236+52394148+51692352+51408568+51644768+52453780+53804064+55390244
3627.98+56342208+55487484+52731028+49386796+46468132+44057532+41919344+39912236
3635.69+38058908+36435748+35067084+33912428+32918792+32059826+31366274+30935662
3643.41+30925164+31523148+32911708+35158080+37934788+39906452+38908716+34742120
3651.12+30068452+26781534+24987054+24161784+23723032+23133604+22063702+20590822
3658.84+19077698+17818058+16903878+16309926+15993970+15961646+16274962+17021326
3666.55+18268120+19982138+21895280+23400318+23911562+23615028+23311392+23562484
3674.27+24350144+25047586+24764952+23323780+21375552+19471684+17796532+16414702
3681.98+15420936+14936700+15046867+15781342+17153500+19172714+21750662+24410358
3689.70+26148420+26226036+25036406+23488382+22157612+21215056+20643958+20370722
3697.41+20326114+20458032+20734300+21099422+21453752+21677678+21731592+21715732
3705.13+21811224+22196932+23010214+24279794+25771160+26741832+26036390+23203498
3712.84+19443170+16392379+14736695+14416352+15186498+16818074+19086550+21737114
3720.56+24479466+27037520+29224140+30952376+32182616+32857114+32957932+32603490
3728.27+32053012+31593914+31496670+31974146+33156670+34885996+36429128+36566004
3735.99+34654872+31423784+28117648+25435054+23495706+22197304+21422862+21094384
3743.70+21099602+21257708+21400448+21593308+22069504+22968972+24032116+24351570
3751.42+22972082+20258648+17488466+15438164+14200899+13568232+13223284+12815271
3759.13+12112048+11184770+10362210+9910714+9887266+10183635+10610118+10978116
3766.85+11171706+11154498+10897522+10351684+9537530+8598872+7727686+7059890
3774.56+6673165+6616817+6909857+7476836+8093845+8456812+8422873+8156411+7942487
3783.24+7935237+8072489+8150692+8003485+7624926+7151880+6725146+6425875+6287525
3791.92+6338728+6647049+7293428+8326267+9692429+11213229+12690181+14022340
3799.64+15135376+15768673+15536187+14445161+13092082+12025494+11325308+10737425
3807.35+9965586+8980355+8042455+7438244+7320289+7729993+8666641+10081976
3815.07+11817894+13549327+14953880+15962166+16681149+17073718+16863930+15945516
3822.78+14735049+13728384+13056675+12563780+12039973+11388964+10696011+10157651
3830.50+9970622+10249895+10996402+12101834+13432017+14891058+16384381+17676218
3838.21+18348486+18062694+16930506+15356205+13676431+12051524+10604111+9493892
3845.93+8888405+8901297+9567498+10842685+12613413+14673585+16613789+17647946
3853.64+16994484+15061450+13075795+11607087+10652575+10169060+10183090+10726759
3861.36+11740307+12976545+13984881+14335702+14036535+13556656+13374046+13683612
3869.07+14350731+14978710+15130895+14634990+13598052+12223840+10789538+9631367
3876.79+9016252+9039931+9638531+10596146+11605931+12413365+12950439+13229854
3884.50+13184502+12741663+12055700+11501061+11369953+11682504+12180002+12396015
3892.22+11940193+10893956+9766752+9025885+8894002+9421300+10570794+12197204
3899.93+14015130+15635605+16662618+16761668+15761002+13840339+11554061+9475571
3907.65+7914781+6919985+6416490+6287525+6428959+6787734+7342333+8067562+8887426
3916.33+9640998+10125510+10239795+10094847+9943659+10004845+10321861+10726643
3924.04+10926138+10718693+10209140+9767498+9747199+10254148+11076936+11747907
3931.76+11788948+11061741+9884337+8747816+7981350+7659392+7687635+7924744
3939.47+8255524+8595411+8860382+8963282+8872876+8678584+8546462+8597130+8820657
3948.15+9084221+9212390+9110908+8810732+8424291+8047818+7741752+7532187+7423650
3956.83+7400810+7445509+7535892+7645004+7724039+7709428+7556619+7299962+7033670
3965.51+6864710+6835067+6919478+7054965+7212589+7416185+7713719+8103506+8497583
3974.19+8753742+8762686+8519302+8139139+7766668+7488437+7306695+7170358+7034595
3982.87+6899402+6786626+6713291+6678541+6680105+6723092+6822538+6989801+7208989
3991.55+7435282+7599441+7623138+7460972+7140487+6760441+6446245+6287525
##END=
