##TITLE=Default
##JCAMP-DX=4.24
##DATA TYPE=INFRARED SPECTRUM
##DATE=19/9/2016
##SAMPLING PROCEDURE=ATR
##ORIGIN=Default
##XUNITS=1/CM
##YUNITS=ABSORBANCE
##RESOLUTION=4
##FIRSTX=599.84104
##LASTX=3998.2974
##DELTAX=0.96437467
##MAXY=2
##MINY=0
##XFACTOR=1
##YFACTOR=1.8626452e-009
##NPOINTS=3525
##FIRSTY=0.06678877
##XYDATA=(X++(Y..Y))
599.84+35856948+40419412+42575020+41468972+37617468+32399070+27071958+21987462
607.56+16812316+11394328+6445416+3338644+3187914+6121965+11268841+17270732
615.27+22833784+27019284+29359166+30010666+29762890+29719920+30842010+33629372
622.99+38065060+43773288+50124320+56385544+61827768+66032116+69148424+71909192
630.70+75251344+79717264+85088304+90499056+95064608+98549016+101556832
637.45+105154840+110189800+116858280+124717912+133022712+141177632+149042032
644.20+156968464+165536640+175131440+185547984+195947296+205253360+212829760
650.95+218889488+224293392+229902672+236005936+242277808+248094368+252946848
657.70+256649312+259325200+261216816+262501808+263402768+264623136+267850352
664.45+275896448+292400704+320236288+356552064+387179744+396466976+386423648
671.20+370660576+358767744+353674368+354519712+358927296+364539072+369923744
677.96+374568160+378333056+381091360+382749408+383355520+383089440+382128128
684.71+380509536+378065600+374485696+369484288+363001664+355241152+346511008
691.46+337031328+326914176+316278624+305347200+294411296+283704960+273361120
698.21+263450288+254051440+245224096+236948736+229110816+221579360+214321024
704.96+207443024+201140960+195566976+190742992+186536560+182731952+179095632
711.71+175470816+171855312+168468288+165815776+164580768+165310512+167938560
718.46+171491248+174324048+174971056+173092448+169704864+166422128+164417072
725.21+163858976+164065808+164014480+162820304+159927088+155123696+148498576
731.96+140394256+131344264+121931872+112654584+103841624+95643800+88085128
738.71+81167272+74945312+69524184+64979136+61279988+58299152+55886488+53930696
746.43+52355404+51102752+50111476+49351036+48786232+48340100+47853244+47123684
754.14+46009000+44500236+42717136+40817668+38913540+37043576+35218320+33484558
761.86+31950834+30718150+29796154+29054536+28277660+27268070+25951662+24395164
769.57+22766974+21253866+20009906+19100980+18495508+18079582+17697428+17205830
777.29+16510967+15591720+14507438+13402821+12444026+11759261+11384763+11268392
785.00+11323731+11465177+11622583+11741647+11790030+11772696+11722518+11664318
792.72+11584437+11434464+11172187+10791435+10312205+9745354+9074781+8296924
800.43+7455230+6664219+6071787+5800394+5892729+6255755+6667640+6825355+6483168
809.11+5586528+4359510+3187914+1992899+1295400+961515+778165+616019+460605
817.79+338288+235520+121729+15539+0+164306+525312+1026587+1593270+2171116
827.43+2705740+3105958+3250517+3061726+2600672+2064702+1718420+1756397+2195798
836.11+2871728+3516077+3902551+3939995+3712357+3408596+3212540+3204210+3319488
844.79+3399565+3299293+2996991+2632563+2420042+2501634+2821438+3149488+3237447
853.47+2982574+2500176+2004118+1650825+1456255+1351888+1301682+1362939+1615372
862.15+2074462+2642856+3187914+3110474+2979910+2898009+2956041+3187914+3484663
870.83+3936461+4530547+5233515+5954883+6560497+6946887+7105386+7150123+7241139
879.51+7481848+7856766+8248850+8543158+8684072+8709624+8723339+8849920+9169163
888.19+9684798+10316188+10944745+11483324+11924520+12325663+12775442+13375418
895.90+14231192+15458239+17148386+19337258+21997336+25033706+28276650+31461088
903.62+34224156+36170888+36988716+36568500+35065796+32885086+30569524+28631262
911.33+27377682+26853324+26914580+27403570+28282260+29612692+31445464+33712476
919.05+36241400+38866728+41520860+44240708+47119672+50257016+53762828+57780880
926.76+62481652+67996768+74336048+81302768+88435472+94994600+100039296
933.51+102609504+101982824+97919280+90794400+81500144+71199776+61000348
940.27+51706624+43740584+37186508+31909042+27658528+24156334+21170198+18575892
947.98+16365173+14587038+13257785+12305693+11590103+10960761+10315655+9623345
955.70+8920938+8291735+7832252+7581250+7499069+7469506+7393496+7248179+7095149
964.37+7014679+7044719+7170963+7367299+7629268+7976868+8432060+9001407+9677983
973.05+10453652+11313381+12231843+13176501+14115130+15043212+15987281+16984446
980.77+18071870+19254936+20511966+21812050+23129018+24438806+25703886+26883280
988.48+27945150+28904984+29841172+30857576+32029762+33358622+34772748+36173976
996.20+37494448+38734876+39957460+41252636+42703452+44346084+46171676+48126600
1003.91+50145496+52170988+54148208+56015172+57690596+59106712+60251436+61198536
1011.63+62092008+63082328+64270948+65702352+67381480+69291752+71403680+73684216
1019.34+76098144+78603648+81125560+83511272+85560128+87105208+88110736+88709952
1027.06+89138328+89622696+90292392+91168000+92206368+93341640+94526864+95741040
1034.77+97012288+98404400+99971976+101704704+103487272+105122944+106408976
1041.52+107210336+107500416+107327552+106777224+105931600+104885352+103789880
1048.28+102851728+102286448+102225752+102664592+103485192+104524712+105663296
1055.03+106831328+107988280+109111576+110190416+111240064+112281992+113302096
1061.78+114227400+114965344+115455656+115704496+115757256+115650280+115375384
1068.53+114913544+114270264+113518576+112795912+112274696+112097520+112309672
1075.28+112841408+113541040+114277864+114998584+115735016+116529280+117356584
1082.03+118125776+118724936+119095904+119259336+119291112+119281632+119305592
1088.78+119403000+119567248+119738120+119813232+119711808+119448240+119157104
1095.53+119031808+119201448+119649544+120228792+120765544+121169104+121453000
1102.28+121680392+121917256+122203232+122568840+123035896+123595008+124204824
1109.03+124806432+125357744+125870656+126393080+127008400+127783840+128755400
1115.78+129914040+131201192+132546768+133887968+135192992+136442000+137615920
1122.53+138691264+139647216+140494944+141295216+142160416+143230336+144639040
1129.28+146493024+148881152+151891680+155598368+160008432+164992208+170242960
1136.03+175310208+179709296+183055216+185195776+186267360+186649232+186814800
1142.78+187142224+187770400+188579136+189283504+189583024+189288448+188350736
1149.53+186847664+184937232+182795200+180582608+178429072+176452016+174782400
1156.29+173563520+172918240+172909856+173520800+174688160+176332032+178387536
1163.04+180809008+183585488+186747792+190368320+194528928+199248944+204493600
1169.79+210194560+216313616+222837728+229731744+236858096+243952288+250648368
1176.54+256548896+261290752+264591648+266293184+266423776+265213744+263062320
1183.29+260445664+257845360+255697808+254392720+254284400+255667568+258740000
1190.04+263592832+270206304+278460416+288062080+298472480+308834016+318009216
1196.79+324769664+328089408+327433472+322908192+315212704+305420896+294704064
1203.54+284085216+274315328+265841936+258869680+253424512+249404544+246636544
1210.29+244923696+244087680+243990768+244530752+245626480+247213776+249246800
1217.04+251714224+254651728+258135712+262204336+266745312+271406656+275638080
1223.79+278884576+280852864+281687008+281913824+282202080+283071232+284709472
1230.54+286986976+289611200+292296416+294866752+297248224+299392128+301225408
1237.29+302670976+303697440+304358272+304770240+305057248+305311392+305568096
1244.04+305816736+306029536+306187968+306299040+306394176+306508704+306671296
1250.79+306894208+307185120+307564096+308070496+308769728+309746176+311087712
1257.54+312847680+315031552+317593056+320465536+323605024+327012544+330714400
1264.30+334728480+339017536+343465856+347912704+352175040+356081792+359447904
1271.05+362063616+363683968+364085216+363092928+360590656+356509440+350843872
1277.80+343691136+335285056+325990848+316251872+306542112+297287872+288799008
1284.55+281217984+274523936+268619552+263416688+258877280+254989392+251718448
1291.30+248996160+246742960+244903680+243443696+242337280+241549232+241037248
1298.05+240752960+240634528+240594896+240509888+240251504+239728640+238917152
1304.80+237846368+236568080+235124912+233564400+231950736+230359632+228830576
1311.55+227346928+225863728+224371440+222929904+221622496+220490656+219497776
1318.30+218570720+217669152+216835008+216177344+215817216+215829184+216214416
1325.05+216897104+217746576+218632992+219453936+220164144+220778928+221373808
1331.80+222079952+223051312+224427536+226298048+228677776+231457056+234329216
1338.55+236796544+238396528+239089504+239334560+239695632+240512640+241868880
1345.30+243707200+245920592+248391872+251011792+253694672+256400960+259151520
1352.05+261994864+264958144+268010672+271085728+274141088+277222656+280463232
1358.80+284029472+288048800+292524512+297239392+301768512+305769760+309288832
1365.55+312649408+316094304+319595040+322891968+325689280+327820512+329173504
1372.31+329465120+328204000+325088576+320530848+315517792+310840800+306730496
1379.06+303083648+299807968+296966144+294717920+293172352+292269376+291716096
1385.81+290983808+289469248+286916256+283749184+280740128+278401312+276807008
1392.56+275742048+274887680+273969664+272897056+271745120+270599712+269516704
1399.31+268656160+268306384+268733152+270040640+272193984+275083264+278586752
1406.06+282680192+287585824+293774560+301820768+312181888+324919616+339494528
1412.81+354846208+369734464+383014336+393462432+399232160+397692448+387468512
1419.56+371779296+356659040+345283584+337151456+330798176+325555744+321680000
1426.31+319650912+319602496+321334720+324508224+328687552+333366144+338138240
1433.06+342866304+347571232+352145984+356076992+358621600+359609152+359664480
1439.81+359463328+359303168+359274560+359472192+360020384+361002848+362385952
1446.56+364039360+365837888+367795168+370091360+372961280+376544672+380847392
1453.31+385806816+391415456+397818272+405068832+412313664+417912192+421801056
1460.06+425324288+429249376+433432288+436887680+437798752+434363936+426773664
1466.81+417654816+409774272+404483136+402240672+403404000+408037312+414358784
1473.56+417783904+414444640+404849888+391868448+377896288+364167456+351060096
1480.32+338662272+327364928+318033664+311565536+308319840+308080032+310436992
1487.07+315166880+322213024+331035840+340000448+347529376+353651776+359490208
1493.82+366234880+374894080+386175744+399889600+414372864+427520256+438662592
1500.57+448428864+457530528+466359200+475323360+485467264+499352800+520879456
1507.32+548835775+571745151+584813119+593433407+601807679+611168831+621615807
1514.07+633303935+646772351+662361279+679232255+695615935+710896959+726901695
1520.82+746271487+768902143+790862207+809110463+824620031+839656639+854825023
1527.57+868950399+880886143+890666943+898874879+905562175+909832767+910598847
1534.32+908286335+904922431+902078911+899804287+896656703+889174719+872227199
1541.07+845617279+818021567+794419007+773733631+755472895+740073919+727132799
1547.82+715201983+702676223+688881343+674547839+661039423+649052159+638379263
1554.57+628724287+620082879+611563583+598601279+573221695+538867455+512715232
1561.32+498304320+489111456+480443712+470682912+460125184+449687456+439569376
1568.07+428684480+415761824+401560608+388978976+379954272+373976480+369183840
1574.82+363361152+354813248+344217120+334553920+327575840+322801312+319255616
1581.57+316421056+314212512+312732416+312095744+312362400+313554144+315662496
1588.33+318650432+322461888+327046464+332375072+338461792+345372096+353173856
1595.08+361863904+371318464+381428640+392264576+404132736+417441728+432473120
1601.83+449172288+467098336+485642176+504406208+523423936+543057599+563688447
1608.58+585355071+607592511+629648575+650931583+671422655+691953983+714481279
1615.33+741864639+775486719+811279167+842067135+865533311+884684543+903452607
1622.08+924299967+947121471+969344575+988487743+1004520255+1018902143
1627.86+1032503295+1044904575+1055208895+1063109247+1068939327+1072859007
1633.65+1073741823+1068176511+1051876991+1026425663+1000508479+978980671
1639.44+960492735+942855103+925415871+908650751+892886847+876891775+856837631
1646.19+827631935+790207487+755669503+732372351+718268671+706382847+687135359
1652.94+650937215+604146943+567504383+545200191+529728800+515961792+502091040
1659.69+487451776+471111872+451861376+429825728+407791200+389137664+374845984
1666.44+363530752+352809760+340151104+324150784+306485440+290662400+277917632
1673.19+266722448+255109600+242464304+229976368+219301776+210962880+204410288
1679.94+198898272+193894880+188769952+182095856+172013824+159257888+147692128
1686.69+139140416+132342536+125652624+118501040+111475248+105504080+100975928
1693.44+97599120+94748512+91809168+88361760+84157336+78815008+71978064+64260376
1701.16+57332104+52288404+48790680+45755064+42180648+37727016+32990078+28928726
1708.87+26046528+24297360+23465722+23457974+24321216+26087788+28467174+30434170
1716.59+30170686+26710426+21748886+17577404+14916224+13464597+12743257+12349595
1724.30+12069115+11917228+12077396+12720889+13898024+15541759+17538016+19749312
1732.02+21881188+23274104+23195710+21869956+20405250+19486346+19095174+18988564
1739.73+18978536+18996606+19038040+19113098+19245148+19483626+19871664+20387902
1747.45+20875666+20949138+20015712+17720806+14520522+11406220+9086926+7716869
1755.16+7091250+6883337+6829387+6809788+6789018+6668419+6242803+5397877+4314485
1763.84+3401739+2982490+3187914+3826358+4992575+6507731+8125803+9518866
1771.56+10221386+9813574+8409320+6690570+5299673+4479724+4181587+4213127
1779.27+4343256+4385447+4263985+4021474+3745860+3495889+3299160+3210465+3343735
1787.95+3861411+4863737+6296494+7819876+8826282+8870037+8159047+7292726+6692771
1796.63+6474249+6603207+6957763+7304051+7343872+6900523+6084942+5216245+4579105
1805.31+4309850+4420640+4843282+5442585+6013139+6322285+6195704+5636194+4826398
1813.99+4019876+3425909+3150835+3187914+3392251+3725483+4166329+4743207+5471517
1822.67+6300463+7144485+7956666+8760271+9599084+10409189+10940033+10817884
1830.38+9879452+8448503+7128295+6333132+6142083+6385533+6787896+7122846+7355295
1839.06+7646497+8219308+9198445+10540699+11957399+12939053+13060375+12386065
1846.78+11352340+10316812+9394277+8603988+7990485+7624682+7524305+7632921
1854.49+7853141+8138838+8491206+8912208+9363220+9777182+10096881+10321517
1862.21+10501979+10769235+11306383+12277238+13683189+15207475+16188772+16016374
1869.92+14742894+13026451+11499459+10448189+9930787+9897038+10251446+10836662
1877.64+11479145+12030535+12403995+12570684+12543618+12372125+12136318+11945100
1885.35+11924744+12160488+12624705+13119346+13365770+13217150+12848718+12609734
1893.07+12737753+13194122+13727470+14062722+14067223+13778083+13322008+12836369
1900.78+12460070+12294902+12361754+12602617+12952418+13393390+13950817+14574999
1908.50+15104111+15323356+15125351+14604056+13986522+13509130+13321839+13461308
1916.21+13849024+14333855+14783985+15191902+15624725+16084805+16401600+16333051
1923.93+15786030+14947729+14148612+13624660+13414882+13437930+13601079+13862893
1931.64+14208782+14589422+14897846+15031032+14982642+14916876+15093874+15739049
1939.36+16875430+18267504+19497138+20163672+20128262+19572636+18764692+17851018
1947.07+16871538+15911559+15156575+14774659+14766924+14936412+15025773+14919366
1954.79+14715470+14644586+14881557+15405502+16019488+16479953+16609997+16340119
1962.50+15714184+14855051+13984994+13438610+13566229+14507592+16018702+17565678
1970.22+18670310+19143578+19095160+18793188+18484134+18316848+18320958+18481434
1977.93+18767096+19145192+19558458+19929878+20184392+20297510+20314256+20337310
1985.65+20512450+20977542+21818774+22989662+24278134+25313872+25691524+25199120
1993.36+23977542+22473296+21171650+20383744+20174548+20394712+20778802+21079162
2001.08+21175302+21062080+20795588+20434316+20028032+19650618+19376294+19255988
2008.79+19290894+19463628+19766694+20178784+20644606+21053988+21285616+21279838
2016.51+21037846+20640622+20207484+19870346+19735042+19850908+20208878+20739870
2024.22+21324630+21834376+22166382+22326136+22422292+22608524+22971766+23486378
2031.94+24060306+24609374+25068766+25343602+25299082+24860116+24100674+23262696
2039.65+22630282+22418266+22678770+23325712+24191640+25124070+25999710+26737900
2047.37+27273330+27541132+27502910+27197038+26702214+26106228+25448642+24746872
2055.08+24053862+23494084+23238196+23410614+24021242+24931492+25886522+26599370
2062.80+26889274+26766858+26436516+26143758+26009498+25976436+25918868+25776328
2070.51+25597416+25462778+25403246+25417222+25512212+25733688+26114860+26601586
2078.23+27072140+27388536+27482772+27359164+27049366+26616248+26157872+25835880
2085.94+25808358+26111650+26586510+26941226+26923184+26484548+25814740+25231936
2093.66+25009978+25257108+25878542+26652590+27335806+27793340+28020024+28096462
2101.37+28076830+27944134+27655266+27238340+26815116+26539754+26479814+26565726
2109.09+26658354+26671938+26640852+26676958+26865644+27195062+27552554+27792654
2116.80+27792002+27488928+26881106+26031460+25065358+24159070+23480060+23124264
2124.52+23058436+23128906+23135372+22921014+22448734+21822842+21236510+20872944
2132.23+20823742+21067150+21517518+22070596+22629658+23080910+23296354+23174828
2139.95+22712414+22036350+21396300+21083684+21313678+22132934+23352050+24610110
2147.66+25517100+25830222+25501582+24657708+23482516+22122682+20698388+19371126
2155.38+18424258+18270870+19313564+21669812+24975906+28483694+31417066+33360228
2163.09+34317044+34541528+34304636+33774576+32998086+31984766+30772290+29469506
2170.81+28251576+27307386+26778702+26710082+27016514+27513476+27961460+28170720
2178.52+28075980+27776498+27461610+27319862+27435804+27789702+28274070+28744232
2186.24+29062614+29168706+29130496+29100190+29190464+29368112+29458792+29273108
2193.95+28763656+28094156+27559910+27447796+27885478+28760396+29756410+30508588
2201.67+30783936+30593870+30175272+29836558+29803082+30106078+30561726+30874244
2209.38+30779078+30211006+29342526+28484046+27897210+27648746+27620824+27638354
2217.10+27587510+27455648+27263716+27008556+26660550+26228400+25815238+25597276
2224.81+25708844+26145602+26748740+27319140+27768238+28151766+28578398+29060790
2232.53+29481540+29693582+29663276+29524256+29475768+29653410+30031098+30472862
2240.24+30821346+30999016+31026826+31009170+31079690+31360570+31926986+32761206
2247.96+33730420+34624592+35255772+35554624+35625584+35677936+35923784+36473164
2255.67+37325748+38397728+39575592+40741784+41794124+42656092+43291176+43730220
2263.39+44068268+44431288+44924680+45573452+46296400+46964324+47464244+47759660
2271.10+47871944+47831212+47649752+47343064+46961860+46581472+46235200+45862000
2278.82+45325564+44530052+43567872+42770612+42619412+43511152+45566708+48566756
2286.53+52084972+55721748+59302952+62901208+66724824+70946064+75592344+80528736
2294.25+85545768+90487240+95336216+100211912+105250408+110493240+115847600
2301.00+121224752+126717048+132691360+139676384+148108032+158085792+169302576
2307.75+181129968+192842992+203805664+213615696+222200400+229874768+237352880
2314.50+245607968+255603104+267964880+282799904+299697920+317885248+336433984
2321.25+354445888+371197984+386299392+399811744+412166816+423914592+435425696
2328.00+446695360+457309312+466606688+474044192+479625216+484039808+488285600
2334.75+493076832+498531776+504410304+510531872+516907424+523336864+528876288
2341.50+531486624+528015680+514906304+490451008+457628704+423896032+397226400
2348.25+382724192+382356512+396147040+422869344+459924288+503247552+548159999
2355.00+590952255+629478271+662261119+687812223+705119103+714194879+715781759
2361.75+710627391+699273151+682213311+660045951+633457279+603201343+570066047
2368.50+534794560+498084032+460616512+423068736+386057216+350091328+315581824
2375.25+282855616+252135536+223493408+196828512+171949664+148670992+126929360
2382.01+106842048+88691160+72819208+59493160+48793496+40585016+34552628
2388.76+30293482+27395998+25508026+24358196+23742374+23483132+23422092+23428166
2396.47+23433452+23456908+23549452+23737934+23984078+24225886+24427812+24618294
2404.19+24852222+25148948+25470168+25740462+25893056+25913756+25840838+25736724
2411.90+25660258+25656856+25750608+25964818+26287658+26661854+26991032+27196198
2419.62+27257180+27227310+27172154+27125684+27073304+27001166+26933766+26917322
2427.33+26984232+27130536+27302906+27442494+27495190+27430946+27256100+27023982
2435.05+26833754+26788870+26956892+27321236+27799364+28270816+28632854+28846748
2442.76+28946460+29015352+29127706+29327786+29609662+29942524+30276982+30566410
2450.48+30773244+30883648+30904340+30849548+30718872+30503238+30224386+29941990
2458.19+29761150+29756158+29928584+30201000+30464322+30639932+30700928+30669858
2465.91+30578710+30462274+30350980+30279990+30277368+30337180+30417944+30467084
2473.62+30467226+30452746+30482532+30590560+30757860+30935046+31083392+31193796
2481.34+31271790+31309480+31289468+31209776+31117042+31092290+31205856+31473162
2489.05+31830586+32174594+32405570+32473700+32393202+32228916+32064232+31954094
2496.77+31924196+31971380+32090486+32279950+32520014+32764046+32940874+32994776
2504.48+32925736+32795832+32694774+32698470+32833794+33088506+33432950+33829604
2512.20+34210064+34480644+34546800+34383644+34079352+33801964+33701292+33819636
2519.91+34062108+34273768+34341904+34242804+34055948+33894388+33847872+33942100
2527.63+34149796+34414020+34688940+34939348+35143908+35287580+35379052+35461036
2535.34+35608268+35878088+36259828+36672444+37006376+37183304+37191340+37066092
2543.06+36858592+36615100+36372808+36175208+36065416+36071480+36184708+36361616
2550.77+36547608+36703956+36832620+36962476+37131088+37355864+37634836+37938744
2558.49+38230004+38452436+38569256+38576908+38532732+38498444+38514788+38562784
2566.20+38597728+38590728+38546160+38483396+38415092+38344808+38287976+38279008
2573.92+38346380+38501572+38723612+38991164+39286804+39587204+39867448+40104568
2581.63+40293028+40447852+40587268+40706492+40785356+40814364+40798664+40762784
2589.35+40720172+40681516+40665424+40716188+40871820+41137064+41454556+41746732
2597.06+41954616+42078608+42153540+42212232+42249156+42237012+42157192+42028292
2604.78+41905336+41842136+41859680+41940928+42051860+42164380+42263832+42329652
2612.49+42328980+42242440+42097316+41955368+41882672+41894276+41957316+42015216
2620.21+42029980+41979852+41851756+41646892+41396536+41171516+41057288+41101332
2627.92+41286636+41536448+41763308+41907476+41964580+41973416+41979868+42010460
2635.64+42052140+42065716+42025472+41931808+41815204+41709672+41641732+41621680
2643.35+41653456+41727180+41827812+41926072+41997424+42035536+42055440+42084456
2651.07+42149480+42252888+42366580+42434372+42402052+42239920+41975716+41677480
2658.78+41412908+41218760+41084364+40984000+40891152+40793168+40698736+40634380
2666.50+40630160+40710592+40876484+41091044+41307188+41484964+41616448+41728156
2674.21+41848960+41985204+42120252+42226824+42296192+42353692+42437308+42581084
2681.93+42789356+43038000+43282692+43482280+43611028+43676452+43718524+43795040
2689.64+43958616+44218776+44538328+44841652+45059488+45161336+45162256+45116052
2697.36+45084108+45107976+45205476+45364336+45551704+45733132+45904280+46082156
2705.07+46298040+46558284+46827240+47043952+47171564+47225136+47279100+47411080
2712.79+47657888+48008864+48412132+48825324+49213196+49562664+49854308+50071100
2720.50+50213036+50304648+50397452+50545328+50783932+51116436+51524636+51976832
2728.22+52437392+52876576+53267836+53595304+53848272+54023568+54144556+54264756
2735.93+54452744+54774316+55237040+55781060+56303720+56725696+57031512+57268344
2743.65+57504788+57768992+58023300+58203844+58260252+58213552+58148596+58168524
2751.36+58358984+58735460+59243656+59780452+60248252+60583584+60793944+60934480
2759.08+61066288+61221516+61403324+61612124+61857032+62159492+62531016+62939872
2766.79+63324524+63615144+63772808+63807020+63780500+63780984+63884264+64123696
2774.51+64482208+64901104+65327156+65730600+66120580+66530032+66978416+67445512
2782.22+67868544+68189528+68388976+68531648+68725952+69061272+69565032+70186440
2789.94+70836512+71432600+71943704+72390832+72836040+73337296+73917704+74562568
2797.65+75224576+75872736+76499088+77111968+77725312+78333520+78939016+79553328
2805.37+80197512+80872008+81550952+82201704+82818272+83434928+84112920+84882960
2813.08+85725576+86585408+87424648+88249240+89113384+90061712+91098248+92176808
2820.80+93230016+94214016+95129968+96013728+96900408+97812344+98751912+99728744
2828.51+100761184+101874816+103065296+104302312+105552320+106820960+108169744
2835.26+109708640+111564096+113849552+116639496+119970968+123845616+128259568
2842.01+133219528+138753264+144890720+151623120+158907648+166671920+174830432
2848.76+183279232+191879296+200442864+208741312+216533904+223589920+229707488
2855.51+234740960+238604336+241281264+242804112+243240208+242691328+241286960
2862.26+239197216+236623280+233788064+230916192+228207184+225801536+223742416
2869.01+221972608+220349616+218695312+216839584+214650528+212040464+208964448
2875.77+205414592+201427360+197094288+192552400+187980528+183563824+179470848
2882.52+175835376+172746592+170237648+168305440+166919600+166050384+165689520
2889.27+165846560+166538896+167771536+169522608+171727152+174294816+177132384
2896.02+180187264+183460960+186988608+190790016+194832096+199050000+203367072
2902.77+207721504+212058112+216315888+220440304+224417232+228282224+232108784
2909.52+235975024+239952384+244113648+248534304+253282192+258379344+263793824
2916.27+269450240+275259456+281153472+287087584+293036544+298972800+304853504
2923.02+310600192+316118080+321311648+326125216+330533120+334519680+338032384
2929.77+340942112+343057664+344161568+344063680+342648608+339905888+335948192
2936.52+330983104+325271808+319041920+312452480+305601632+298556448+291396864
2943.27+284185248+276939392+269602880+262085296+254322656+246323264+238171088
2950.02+230007520+222004560+214343536+207184624+200620160+194655728+189224128
2956.77+184241952+179652912+175424256+171517376+167849888+164294864+160723264
2963.52+157037712+153216704+149295040+145342800+141428304+137594000+133849376
2970.27+130191472+126620968+123150104+119812752+116649104+113699248+110970936
2977.02+108442304+106077952+103855400+101779640+99876488+98153368+96573432
2983.78+95060872+93537112+91967496+90385904+88873216+87514968+86362008+85438136
2991.49+84737264+84243024+83919136+83687976+83466784+83200216+82895488+82631352
2999.21+82493744+82540336+82765576+83118936+83539160+83978104+84412320+84829032
3006.92+85217928+85561856+85858824+86130344+86427744+86804368+87283752+87846752
3014.64+88449640+89048200+89622496+90204440+90864880+91672400+92639792+93709736
3022.35+94785432+95794328+96743968+97683384+98646856+99622824+100571816
3029.10+101472248+102335304+103186904+104053368+104975832+106020600+107242416
3035.85+108635408+110107784+111536528+112838504+114031984+115202904+116447992
3042.60+117834496+119387728+121101784+122948768+124878344+126813296+128695112
3049.35+130488912+132205408+133875464+135525472+137159040+138750496+140258048
3056.10+141641088+142873456+143948640+144899504+145773792+146612400+147408976
3062.85+148104352+148614576+148889744+148964000+148953440+149006400+149233744
3069.60+149664864+150242704+150846336+151324592+151565680+151533424+151291728
3076.36+150957168+150644336+150399472+150215280+150049600+149860224+149607712
3083.11+149255584+148781712+148198592+147567328+146954592+146416240+145955840
3089.86+145556112+145189360+144825024+144407712+143853920+143086992+142068064
3096.61+140844624+139553616+138368768+137437232+136799008+136366992+135955456
3103.36+135366736+134509408+133420504+132249640+131173536+130307176+129646456
3110.11+129081936+128467400+127717568+126854472+125988304+125235144+124653024
3116.86+124237864+123951216+123774264+123706984+123750560+123875400+124023864
3123.61+124135096+124168688+124134624+124079744+124084112+124205344+124466696
3130.36+124845336+125283656+125720008+126116328+126461840+126770912+127070384
3137.11+127395520+127793944+128321760+129013456+129844224+130715552+131497240
3143.86+132117104+132597560+133043992+133564592+134213528+134965136+135766160
3150.61+136586512+137432656+138346272+139369552+140490464+141650928+142765824
3157.36+143790976+144755632+145743744+146833216+148044576+149340928+150675312
3164.11+152025216+153400736+154818368+156278928+157753888+159218720+160657712
3170.86+162086944+163537008+165045392+166638320+168309392+170037296+171758400
3177.61+173398512+174891376+176217968+177415280+178548256+179678592+180847456
3184.37+182070256+183346576+184653424+185943584+187166480+188285744+189309792
3191.12+190279808+191270624+192358608+193609792+195031920+196546240+198002592
3197.87+199237424+200168816+200851680+201429744+202044704+202766256+203579856
3204.62+204440080+205338560+206308464+207393232+208586800+209831280+211044368
3211.37+212176128+213229776+214257248+215307168+216407584+217556480+218733600
3218.12+219928400+221140464+222376704+223648528+224957584+226322592+227770800
3224.87+229345408+231061536+232868416+234666064+236357088+237935744+239504640
3231.62+241199728+243111680+245239408+247526480+249924448+252433904+255081504
3238.37+257866144+260738576+263614336+266412800+269104032+271699392+274237184
3245.12+276780448+279410304+282222880+285294592+288640256+292186688+295798720
3251.87+299335040+302728960+306006496+309269216+312638144+316188448+319921696
3258.62+323770944+327645920+331465376+335193248+338821472+342352000+345778464
3265.37+349086592+352279520+355391552+358500000+361684640+365009056+368495104
3272.12+372135040+375911712+379799680+383741440+387663968+391517984+395335008
3278.87+399236032+403344864+407701920+412214912+416718912+421093632+425346016
3285.62+429583552+433917312+438380704+442909728+447385152+451674784+455656480
3292.38+459235456+462341888+464936320+466993728+468479424+469334848+469492608
3299.13+468912704+467572000+465459264+462560128+458872128+454419008+449233856
3305.88+443312512+436615872+429119552+420891520+412096000+402942016+393629472
3312.63+384321440+375178880+366334752+357849248+349670080+341670336+333741568
3319.38+325871520+318152288+310730400+303719104+297164416+291044352+285295424
3326.13+279837152+274575456+269416992+264304352+259255328+254375920+249797888
3332.88+245585072+241677984+237938544+234243568+230573872+227017616+223680640
3339.63+220592624+217687504+214884704+212152048+209539712+207137904+204960576
3346.38+202924480+200865568+198647456+196231488+193706048+191242208+189017712
3353.13+187149440+185657280+184443248+183338864+182166448+180817888+179282416
3359.88+177635584+175993600+174450400+173043024+171743952+170481376+169201760
3366.63+167907888+166648896+165471488+164380832+163349520+162341328+161350976
3373.38+160401440+159510736+158668032+157817808+156912608+155955264+155031840
3380.13+154265312+153735920+153395056+153080336+152612544+151906960+151034736
3386.88+150161040+149429600+148881776+148447232+148016304+147514384+146950672
3393.63+146402656+145940976+145552000+145132112+144575440+143855920+143063440
3400.39+142348896+141806112+141407744+141023856+140523680+139870384+139142976
3407.14+138468944+137936928+137540816+137207664+136846080+136401552+135856896
3413.89+135223312+134557328+133963136+133565280+133449872+133591224+133823912
3420.64+133916008+133697216+133151584+132384120+131525032+130650048+129795208
3427.39+129005728+128350824+127899320+127633520+127443792+127191216+126809016
3434.14+126321224+125808640+125324096+124878824+124472352+124124720+123856304
3440.89+123672688+123539880+123432664+123339040+123233848+123016640+122516744
3447.64+121605840+120323296+118889944+117587960+116618232+116046528+115810032
3454.39+115784448+115855552+115966576+116104000+116252200+116346072+116269752
3461.14+115924584+115275472+114399576+113438744+112533160+111759432+111144680
3467.89+110695632+110418640+110300088+110293312+110326032+110334824+110290920
3474.64+110203520+110094560+109975240+109861496+109743768+109565384+109227384
3481.39+108643232+107840872+106974824+106232504+105692488+105299288+104922440
3488.14+104457896+103877768+103240280+102638336+102168384+101882608+101754696
3494.89+101652272+101392040+100883136+100218856+99646296+99377768+99428000
3501.64+99545968+99344392+98577496+97390504+96192544+95336856+94895328+94669632
3509.36+94333248+93632656+92542088+91237632+89954912+88870552+88074704+87588760
3517.07+87386784+87414688+87603232+87872928+88138256+88293016+88248536+87963016
3524.79+87466360+86823800+86063208+85159616+84093176+82917232+81749464+80720144
3532.50+79899520+79277184+78755792+78164160+77337928+76256120+75105448+74191504
3540.22+73764184+73906344+74507256+75289240+75849392+75762928+74804456+73166392
3547.93+71376016+69920848+68985072+68428456+67933736+67212304+66200024+65063468
3555.65+64042812+63303208+62924572+62915176+63221116+63745776+64395300+65165744
3563.36+66138408+67344704+68520296+68921248+67732712+65055412+61938352+59297096
3571.08+57387144+56082412+55159368+54434264+53807352+53261584+52830572+52549096
3578.79+52435716+52495964+52744080+53233092+54043752+55263620+56899252+58741928
3586.51+60222796+60628792+59893200+58857604+58429392+58944928+60231804+61807644
3594.22+63047128+63467948+63034284+62112664+61080688+60058392+58920656+57551184
3601.94+56057760+54762088+53971808+53771388+53940416+53958752+53202196+51379616
3609.65+48875288+46436740+44635028+43656044+43392376+43593548+44019060+44547300
3617.37+45177088+45959844+46911796+47951616+48972628+49927776+50874752+51949980
3625.08+53313716+55040488+56870604+57892972+56855020+53697232+49861024+46414260
3632.80+43409644+40575360+37775460+35058808+32533714+30255918+28234624+26475498
3640.51+25005098+23879928+23204928+23148432+23941150+25827164+28951232+32970126
3648.23+36189876+35616136+30646484+24672910+20344722+17930854+16799472+16245962
3655.94+15652784+14671999+13372571+12090305+11082563+10410507+10031988+9902571
3663.66+10047369+10575640+11645431+13406772+15868077+18679618+20940214+21711772
3671.37+21198386+20588246+20803298+21957374+23320678+23648016+22463350+20465912
3679.09+18415988+16638442+15250228+14373340+14151844+14700068+16084654+18347034
3686.80+21489298+25343374+29239120+31926958+32596862+31825232+30707682+29895690
3694.52+29551888+29600930+29872606+30195116+30480994+30771220+31167866+31716276
3702.23+32310064+32776172+33079110+33393086+33996480+35140552+36884740+38789580
3709.95+39521696+37151896+31206298+24116896+18756274+16139260+15991636+17788156
3717.66+21080238+25472834+30536644+35802728+40818064+45234520+48835528+51470704
3725.38+53019068+53503196+53183432+52501908+51872636+51598816+51839312+52569268
3733.09+53374428+53263060+51048072+46591784+41183744+36207296+32203376+29118580
3740.81+26760610+24971586+23675462+22834546+22451420+22517346+23033512+24010250
3748.52+25347374+26533548+26399460+23964202+19981682+16137640+13330531+11637192
3756.24+10825376+10538445+10344626+9875076+9079199+8256325+7716256+7554727
3763.95+7682566+7931738+8159717+8296209+8292510+8037122+7387539+6359592+5194437
3772.63+4199026+3563962+3357426+3581716+4197637+5045954+5825687+6187440+6031058
3781.31+5612876+5270868+5154931+5168517+5094186+4788708+4288597+3763026+3367366
3789.99+3187914+3240865+3519036+4047948+4872018+6029817+7471656+9025332
3797.71+10493354+11777447+12807564+13324630+12968991+11798146+10451944+9475556
3805.42+8904554+8403882+7614687+6511556+5438441+4766164+4688443+5256676+6462388
3814.10+8237999+10388373+12529625+14294287+15601473+16560598+17068102+16748436
3821.82+15499519+13897957+12592232+11740875+11156729+10591490+9928122+9234196
3829.53+8689155+8480246+8726410+9441432+10534350+11896139+13469204+15201820
3837.25+16873166+17965724+17954278+16819184+14974470+12856042+10733985+8833684
3844.96+7405382+6662297+6708201+7532902+9056196+11157588+13652168+16109957
3852.68+17526316+16708166+14048901+11294890+9355991+8242861+7819634+8025713
3860.39+8840741+10172263+11739333+13025855+13525584+13224590+12652535+12363763
3868.11+12588046+13164349+13622041+13460919+12528212+11024560+9277025+7656363
3875.82+6517664+6077695+6358281+7242945+8500283+9816365+10908847+11661345
3883.54+12032898+11909532+11217043+10167667+9223688+8742317+8772525+9077954
3891.25+9207890+8755181+7754892+6701386+6090706+6176635+6983132+8379347
3898.97+10103728+11857618+13412396+14583620+15042164+14375689+12511874+9988107
3906.68+7549713+5646274+4356175+3575882+3195378+3187914+3583206+4415946+5592127
3915.36+6857603+7836386+8197802+7899753+7252390+6691432+6483712+6629590+6894391
3924.04+6952367+6626119+6079343+5736659+5976312+6895689+8223827+9374769+9724883
3932.72+9047504+7689933+6253371+5175347+4591814+4455174+4651227+5065826+5571095
3941.40+5991244+6130832+5905866+5462745+5093808+5033277+5316842+5774646+6134769
3950.08+6197835+5958351+5565843+5184740+4904490+4735673+4645719+4609905+4645105
3958.76+4776426+4989360+5198767+5278308+5155387+4867292+4521147+4243671+4107042
3967.44+4133611+4310822+4614757+5003844+5426303+5809945+6071963+6135029+5974033
3976.12+5636853+5239665+4889572+4638370+4475450+4375301+4317132+4277006+4197262
3984.80+4005319+3696489+3369238+3187914+3136194+3382585+3809459+4239916+4521326
3993.48+4578712+4419904+4110825+3753878+3433033+3187914
##END=
