##TITLE=Default
##JCAMP-DX=4.24
##DATA TYPE=INFRARED SPECTRUM
##DATE=19/9/2016
##SAMPLING PROCEDURE=ATR
##ORIGIN=Default
##XUNITS=1/CM
##YUNITS=ABSORBANCE
##RESOLUTION=4
##FIRSTX=599.84104
##LASTX=3998.2974
##DELTAX=0.96437467
##MAXY=2
##MINY=0
##XFACTOR=1
##YFACTOR=1.8626452e-009
##NPOINTS=3525
##FIRSTY=0.072067097
##XYDATA=(X++(Y..Y))
599.84+38690728+39348080+39118580+37531556+34842560+31759604+28757262+25552132
607.56+21438232+16131924+10375662+5680650+3474305+4375708+8038457+13405434
615.27+19085876+23721236+26437964+27201620+26880910+26846892+28341566+32028630
622.99+37755484+44704216+51837588+58503996+64770520+71233840+78453152+86446064
630.70+94564024+101806936+107387544+111172104+113713120+115851064+118231576
637.45+121146952+124735616+129193944+134756464+141437968+148967984+157001328
644.20+165404064+174260592+183605280+193107168+202120432+210070400+216891680
650.95+223128256+229545648+236646192+244425120+252518768+260455984+267836400
657.70+274375840+279958016+284695072+288866400+292865312+297263200+303101920
664.45+312138784+326836608+349315392+377799104+402465856+412113824+407844160
671.20+399218688+393242144+392275712+395932832+402591264+410409504+418014240
677.96+424637600+429917248+433735712+436211264+437628384+438276288+438270816
684.71+437498304+435641824+432362816+427474752+421067072+413451840+404930272
691.46+395659904+385721600+375274592+364628896+354114848+343933920+334124032
698.21+324697888+315764288+307523424+300121088+293549920+287659488+282278912
704.96+277329952+272865760+269015680+265892192+263517024+261832976+260768256
711.71+260322784+260606368+261804464+264165440+267954560+273372448+280300768
718.46+288014848+295159360+300219168+302328352+301720416+299396864+296327872
725.21+292839712+288553312+282718496+274635392+263893312+250437952+234544608
731.96+216751360+197765472+178331840+159123936+140697792+123496648+107855312
738.71+94019240+82134736+72225408+64178896+57794748+52875868+49287412+46920324
746.43+45586964+44962520+44658132+44371048+43968708+43454760+42845352+42072772
754.14+41024428+39638184+37990584+36275516+34676512+33280090+32061150+30983460
761.86+30080290+29422968+29016616+28720280+28294222+27530686+26381278+24950986
769.57+23422386+21960382+20673078+19631532+18898420+18519526+18469818+18598610
777.29+18643528+18342702+17595964+16546452+15491461+14707591+14309443+14258806
785.00+14471535+14888429+15466038+16120575+16745586+17260700+17669090+18018428
792.72+18333418+18567378+18621908+18390404+17798452+16818232+15475141+13859011
800.43+12118070+10430282+8985198+7961050+7480553+7529273+7879659+8119878
808.15+7852709+6936572+5619263+4375708+2979225+2082134+1460835+885802+343828
816.83+5031+0+254562+537662+658101+596653+469956+410845+476664+694574+1089937
827.43+1690813+2457763+3254539+3903626+4306865+4512946+4705912+5091663+5763508
836.11+6649669+7551133+8269902+8718717+8966452+9184392+9544270+10132898
843.83+10896765+11670273+12229525+12397517+12133612+11558339+10872929+10231088
851.54+9633656+8973429+8140120+7138192+6075385+5096065+4316447+3820798+3666252
860.22+3872364+4375708+4766041+5271752+5962373+7029851+8679400+10984414
867.94+13832569+16935976+19897354+22275404+23691472+23935732+23051548+21300456
875.65+19053954+16651709+14347623+12292350+10560063+9153518+8024832+7109175
883.37+6367139+5821781+5551198+5645315+6131621+6942861+7919695+8907550+9845217
892.05+10790370+11860094+13144973+14682198+16485933+18615800+21160882+24196014
899.76+27715536+31589726+35550788+39224796+42177460+43994580+44385360+43284764
907.48+40906416+37724252+34365056+31440810+29375984+28341716+28287934+29058298
915.19+30485746+32436630+34814472+37557940+40636700+44039316+47756596+51766196
922.91+56070728+60739296+65941040+71934552+78982608+87248408+96685808+106964984
930.62+117416200+127010656+134426912+138269936+137436112+131523936+121096232
937.37+107554184+92709352+78235816+65290964+54432676+45730820+38944600+33671892
945.09+29462736+25945460+22928534+20408126+18477124+17174188+16407298+15972078
952.80+15658584+15330327+14961555+14596765+14304442+14145105+14158461+14374543
960.52+14796378+15419623+16224753+17161582+18149076+19070364+19824198+20380906
968.23+20802350+21192024+21616554+22052464+22422044+22675170+22828816+22961532
975.95+23164470+23501770+24020566+24765328+25780642+27088398+28665152+30426364
983.66+32250792+33999996+35560788+36863216+37909732+38764932+39540176+40380612
991.38+41420840+42757524+44399136+46275848+48264912+50263112+52221060+54141372
999.09+56048896+57984840+60009688+62216812+64711976+67589808+70895016+74596544
1006.81+78562360+82572744+86389048+89859256+92992152+95928592+98811000
1013.56+101632744+104203792+106218520+107400504+107615480+106920760+105513672
1020.31+103655048+101565912+99375432+97155016+95008048+93136344+91842928
1027.06+91428096+92079344+93797672+96420136+99669496+103216448+106727944
1033.81+109917472+112598688+114714144+116318512+117523976+118420376+119028320
1040.56+119296656+119155192+118574056+117606744+116371568+115008952+113628640
1047.31+112333760+111223312+110411744+109993984+110001168+110392336+111080776
1054.06+111992960+113084872+114331064+115721464+117248656+118896800+120630344
1060.81+122361104+123955880+125283160+126250624+126835240+127066024+126997784
1067.56+126688240+126205440+125638936+125136464+124909632+125214952+126257120
1074.31+128063672+130437440+133021480+135501648+137769232+139941920+142223872
1081.06+144717216+147347424+149943504+152382848+154680384+156946592+159282480
1087.81+161706672+164157216+166549040+168800992+170822448+172505008+173753136
1094.57+174553776+175007504+175276224+175489952+175670400+175737712+175572560
1101.32+175090784+174264512+173142208+171818032+170429968+169116736+167989904
1108.07+167102544+166450512+165997008+165707376+165579840+165648480+165956576
1114.82+166530384+167361888+168414880+169618064+170888720+172143120+173310784
1121.57+174329280+175150608+175718480+175992992+175982992+175766912+175504320
1128.32+175411936+175712592+176614496+178289856+180864080+184371392+188691840
1135.07+193470320+198105040+201865264+204134080+204639392+203566464+201455296
1141.82+198959744+196594528+194594832+192908848+191292176+189443552+187118800
1148.57+184180160+180628976+176591952+172285024+167970496+163902448+160289792
1155.32+157294160+155050672+153680704+153259040+153762064+155072448+157028640
1162.07+159526368+162567200+166232544+170607744+175724624+181546160+187997840
1168.82+195021856+202624784+210870224+219826704+229458960+239524656+249554032
1175.57+258918096+266969456+273179104+277214240+278973984+278600928+276468480
1182.32+273144576+269323840+265758464+263176896+262216864+263365968+266928592
1189.07+273037184+281694624+292805728+306150112+321255616+337248736+352741120
1195.82+365914688+374838464+377979200+374664192+365322848+351325376+334578336
1202.58+317018432+300209056+285161056+272342976+261854208+253600944+247413520
1209.33+243071648+240319920+238874144+238476224+238930736+240124992+242020016
1216.08+244623488+247985168+252178368+257263872+263202416+269726720+276291136
1222.83+282153440+286638976+289453920+290870656+291645536+292703488+294777760
1229.58+298179872+302786720+308192992+313914912+319561408+324910944+329870848
1236.33+334395264+338435904+341941024+344904800+347400896+349562560+351540192
1243.08+353430976+355252416+356980960+358606624+360172288+361762656+363455616
1249.83+365285248+367243456+369319488+371542400+373973632+376698656+379808416
1256.58+383394752+387522912+392200064+397342208+402774144+408304192+413804992
1263.33+419245728+424663360+430070624+435402112+440507552+445174816+449164992
1270.08+452209600+454006016+454229152+452578048+448809984+442742944+434276192
1276.83+423445216+410478048+395820064+380079680+363942080+348085376+333089056
1283.58+319350720+307028864+296056768+286263328+277498336+269698464+262852800
1290.33+256932656+251868256+247565744+243935920+240905824+238414544+236397152
1297.08+234782992+233483936+232386656+231358384+230265152+229003280+227508576
1303.83+225756928+223740928+221471504+218982160+216355376+213713472+211180224
1310.59+208812016+206584864+204447344+202396752+200512016+198895264+197567504
1317.34+196451360+195427216+194446480+193601760+193077184+193050224+193599264
1324.09+194682544+196171472+197902240+199751968+201669104+203676240+205860736
1330.84+208347760+211286880+214816480+219026272+223921792+229383984+235109248
1337.59+240495120+244653392+246789808+246853488+245655696+244209776+243161600
1344.34+242746048+242973088+243780640+245089440+246838432+248991600+251558944
1351.09+254570240+258028672+261867712+265934480+270046528+274082272+278072384
1357.84+282198624+286718624+291859264+297688896+303933312+309947936+315143456
1364.59+319498848+323472000+327459712+331475872+335183360+338154144+340102176
1371.34+340798912+339766272+336271232+329942688+321512704+312518176+304123968
1378.09+296616832+289811648+283570336+278020448+273450176+270061504+267779264
1384.84+266163856+264439232+261745648+257739200+253009648+248604832+245212176
1391.59+242960640+241625952+240853552+240293648+239763904+239312992+239094336
1398.34+239238352+239875520+241210688+243512752+247068560+252121712+258727200
1405.09+266564240+275076960+284015456+293758624+305065184+318592224+334457184
1411.84+352040032+370120288+387284928+402205920+413370912+418368928+413773632
1418.60+397950880+375428928+354284576+338564320+327414848+318761408+311597312
1425.35+306142496+302941472+302143456+303491808+306566496+310842240+315711808
1432.10+320680512+325556672+330291840+334630464+337827136+339042656+338351936
1438.85+336745696+335045472+333513600+332193856+331213504+330785344+331067008
1445.60+332053152+333626336+335694208+338319904+341705952+346045120+351391072
1452.35+357653216+364725472+372716896+382206496+394026208+407492800+419162880
1459.10+427215488+433373280+439348064+445410240+450464608+452204160+448306272
1465.85+439023936+427785184+418205344+412113920+410257824+413335168+421636224
1472.60+432609600+439274176+435577472+422175712+403420928+382934208+362524800
1479.35+342666304+323412576+305310560+289697632+277977216+270717600+267557968
1486.10+267766992+270745120+275992448+282518784+288656192+293427264+297432576
1492.85+301872448+307727104+315763424+326499328+339653760+353604320+366386656
1499.60+377444640+387416064+396951936+406364704+416018496+427020096+442150432
1506.35+465560864+495624000+519750176+533190336+542185471+551406911+562249663
1513.10+574978367+590082111+608572799+630989055+655862655+680173951+702722559
1519.85+726162495+754448767+787392383+819019263+844712639+865889023+885910591
1526.61+905716607+923679359+938225215+949459967+958252671+964720063+967716351
1533.36+965955775+960268031+953484671+947597183+942484159+936115583+924045951
1540.11+900245951+865596863+831427903+803135935+778650751+757079551+738929023
1546.86+723825471+710201087+696287039+681310207+666013759+651857791+639603519
1553.61+629032127+619760703+611691519+603899519+591735999+566719487+531591456
1560.36+503955904+488180576+477919168+468378112+457867200+446667424+435689792
1567.11+425048288+413481600+399547008+384069472+370276640+360381440+353881696
1573.86+348743936+342459616+332981568+320867264+309462688+300920160+294822176
1580.61+290078560+286056224+282628384+279906144+278035712+277107616+277158368
1587.36+278183072+280137440+282970048+286648736+291173824+296577408+302902592
1594.11+310169088+318319776+327207456+336744192+347058560+358516192+371566112
1600.86+386483520+403149440+421040064+439501920+458147936+477032512+496492384
1607.61+516842304+538075775+559797311+581413311+602501183+623154751+644286527
1614.36+667975615+697241023+733420415+771893119+804803903+829767807+850224639
1621.11+870595967+893680831+919388543+944765631+966930751+985876671+1003371967
1627.86+1020435327+1036374719+1049796607+1060066303+1067521407+1072454335
1633.65+1073741823+1067608703+1049097215+1019697407+989101951+962987071
1639.44+940024063+917856127+895843007+874641663+854732799+834806719+810569727
1646.19+776264831+732925887+693058495+666076543+649680063+636088511+614725439
1652.94+575048191+523959008+484074112+459961472+443435136+428901824+414376480
1659.69+399095296+381966464+361575712+338036800+314488192+294763520+280027104
1666.44+268817632+258602960+246679408+231387600+214164976+198571344+186180192
1673.19+175796592+165634752+155037856+144934576+136693248+130720840+126476424
1679.94+123226920+120425752+117519816+113413040+106729344+98082584+90459128
1686.69+85257352+81529256+78037944+74357400+70919296+68433664+67311648+67639424
1694.41+69402520+72473016+76224128+79474352+81302096+81748280+81586672+81639904
1702.12+82326976+83706488+85634360+87744280+89487464+90561384+91227496+92012936
1709.84+93229032+94906776+96984816+99480608+102452760+105643528+107849616
1716.59+106761768+101221944+93641808+87097600+82418544+79061872+76311256
1723.34+73677464+71012488+68488432+66415492+64985568+64207988+63981596+64195224
1731.05+64662464+64851416+63687748+60312012+55604260+51400264+48366268+46024952
1738.77+43718564+41137120+38435216+35977720+33967200+32392634+31213864+30434906
1746.48+29990388+29579378+28578258+26240926+22353754+17757390+13708874+10934084
1754.20+9470576+8979119+8976940+9053629+9024051+8908471+8689603+8174812+7181238
1762.88+5867200+4717410+4162747+4375708+5114234+6424633+8099837+9939402
1770.59+11675267+12797829+12674583+11203581+9114500+7281044+6158452+5791454
1778.31+5958270+6296154+6465927+6319272+5955650+5560032+5218375+4922653+4704025
1786.99+4717919+5196418+6286647+7909207+9639188+10767125+10825234+10093820
1794.70+9230162+8630425+8355215+8361504+8577220+8840129+8865800+8407297+7496326
1803.38+6454061+5641527+5259100+5337436+5796103+6482240+7178123+7604442+7510894
1812.06+6867212+5911077+5014891+4473374+4375708+4557594+4857815+5140368+5460824
1820.74+5985557+6835905+7983344+9274226+10543017+11717601+12829570+13848103
1828.45+14528603+14439606+13341240+11570332+9823065+8611267+8058101+7999956
1836.17+8153700+8277950+8332277+8484338+8960815+9883951+11218950+12732930
1843.88+14009432+14638898+14499721+13755529+12616010+11248266+9851296+8664420
1851.60+7864425+7472250+7396415+7541715+7906063+8529076+9373329+10255179
1859.31+10931486+11242053+11236550+11163193+11373885+12170833+13681130+15726858
1867.03+17698090+18645078+17897944+15797132+13403129+11540963+10464255+10093858
1874.74+10238357+10687509+11211284+11614972+11801223+11797824+11736264+11742149
1882.46+11849584+12008861+12186689+12462303+12984498+13807723+14716193+15287880
1890.17+15214477+14623334+13969860+13625844+13645631+13818009+13887107+13742907
1897.89+13454559+13167896+13016973+13085645+13372240+13775614+14151596+14410829
1905.60+14592490+14817160+15142183+15489994+15686440+15611772+15314067+14967476
1913.32+14759606+14805100+15122524+15628848+16187921+16687156+17129488+17568886
1921.03+17996088+18233506+18042398+17336782+16321723+15362892+14743555+14543283
1928.75+14672249+14967312+15294011+15597107+15887992+16191110+16513221+16832390
1936.46+17163378+17582526+18221424+19164510+20351140+21508430+22242622+22280554
1944.18+21664826+20668602+19556932+18500698+17643254+17161626+17175094+17626694
1951.89+18241112+18652288+18626520+18173946+17530354+16973272+16659524+16556611
1959.61+16522421+16424576+16230593+16036197+15969967+16108222+16450119+16926956
1967.32+17462020+17990788+18465190+18851054+19155542+19432616+19755250+20155944
1975.04+20605170+21003386+21260696+21366544+21414590+21545758+21834306+22218658
1982.75+22546054+22681030+22628658+22564890+22747562+23345480+24332594+25477718
1990.47+26439364+26895298+26690460+25900490+24775456+23598702+22595576+21895110
1998.18+21555856+21542306+21719880+21871716+21737510+21107168+19951314+18502150
2005.90+17179354+16405688+16354647+16904788+17753062+18622948+19358824+19944202
2013.61+20449892+20976286+21604390+22268838+22751058+22787298+22299922+21502494
2021.33+20782362+20460050+20579808+20876300+20945436+20503754+19636548+18759760
2029.04+18436706+19039266+20574410+22685366+24856878+26586626+27540290+27595958
2036.76+26885342+25753954+24642592+23889250+23611114+23689966+23906394+24120718
2044.47+24392446+24916976+25856036+27144344+28415156+29152812+29023952+28032002
2052.19+26495630+24806824+23269914+22061552+21338052+21258286+21917988+23199632
2059.90+24746964+26101300+26925228+27158200+26991392+26719058+26560702+26588506
2067.62+26750544+26956072+27135846+27262020+27334150+27354774+27345012+27322996
2075.33+27321258+27365524+27447790+27500074+27425722+27173638+26799160+26458462
2083.05+26327976+26488736+26896436+27419838+27896404+28169076+28128066+27725246
2090.76+27034138+26246032+25610368+25314474+25415284+25803078+26274892+26618832
2098.48+26723032+26592974+26343466+26121836+26057214+26211626+26577508+27049350
2106.19+27487880+27762220+27818726+27692448+27450082+27138504+26778836+26409044
2113.91+26106802+25949756+25953918+26037008+26063128+25887516+25432540+24703320
2121.62+23824412+22990348+22374858+22009544+21762768+21431652+20914570+20287912
2129.34+19751102+19494294+19590388+19999346+20622120+21357118+22076158+22636674
2137.05+22900684+22802788+22384322+21787900+21212620+20844432+20791264+21057318
2144.77+21557856+22148684+22681772+23046592+23182796+23085738+22832186+22536044
2152.48+22306562+22173240+22102352+22065198+22175230+22665706+23775040+25538544
2160.20+27744396+30023972+32056360+33595060+34442028+34405204+33377734+31413688
2167.91+28822032+26119102+23895592+22621702+22462658+23219276+24460698+25739468
2175.63+26802386+27592806+28175634+28606968+28904936+29033212+28959286+28656138
2183.34+28158430+27559882+26982080+26497150+26134630+25932464+25990220+26408334
2191.06+27148888+27958308+28472762+28457932+27985154+27386232+27027468+27108440
2198.77+27597082+28288354+28935794+29336758+29402554+29179186+28840598+28610920
2206.49+28635776+28905018+29243920+29407644+29227346+28689954+27966064+27311040
2214.20+26959470+27007098+27391906+27929934+28432120+28757898+28828756+28598246
2221.92+28045312+27207992+26239564+25381378+24866670+24804616+25150914+25773546
2229.63+26556988+27432512+28357520+29262808+30060556+30649836+30966834+30989150
2237.35+30759846+30382794+30011252+29766782+29700872+29776798+29938418+30158298
2245.06+30456272+30848828+31304732+31755600+32133026+32414186+32632014+32862522
2252.78+33175380+33618760+34187604+34843504+35521008+36166036+36738464+37217540
2260.49+37607908+37930680+38241216+38599516+39052932+39597252+40167816+40644996
2268.21+40915892+40912436+40660388+40255328+39827896+39482068+39298968+39318764
2275.92+39538888+39876108+40164304+40195924+39869108+39289980+38774708+38718844
2283.64+39381024+40774988+42688036+44823224+46966260+49078616+51265684+53689332
2291.35+56467556+59614364+63012332+66455232+69741904+72789304+75679136+78596936
2299.07+81694928+84995504+88440208+92035200+95974992+100602112+106240472
2305.82+112982216+120621432+128684616+136590800+143824224+150096336+155444608
2312.57+160254656+165155376+170819952+177776640+186277376+196313600+207674528
2319.32+219968944+232638160+244951728+256149952+265718000+273633856+280367008
2326.07+286610112+292932800+299548928+306240224+312472064+317662240+321537888
2332.82+324327776+326624256+329047488+332001184+335639968+339966208+344809344
2339.57+349698688+353752896+355625152+353448224+345083040+329425344+308270944
2346.32+286385472+269021504+259636208+259608928+268956576+286770176+311148256
2353.07+339203584+367759040+394525728+418460800+439069824+455763296+468048768
2359.82+475800320+479047584+477614464+471246848+459979840+444380672+425385792
2366.58+404001088+381030848+357053376+332485600+307709888+283105056+259010576
2373.33+235693552+213380848+192249184+172398400+153820304+136413216+120071048
2380.08+104730544+90414584+77230760+65344520+54951228+46212604+39173140
2386.83+33734384+29680788+26754326+24733482+23454300+22779370+22538658+22521342
2394.54+22536068+22482510+22371206+22296994+22331948+22473542+22651392+22810692
2402.26+22951022+23131404+23402428+23747656+24077716+24284262+24287182+24080142
2409.97+23722196+23313694+22976446+22821294+22918636+23278156+23824876+24417578
2417.69+24910824+25221952+25372448+25450836+25528394+25593292+25574696+25412326
2425.40+25129796+24821984+24597658+24522580+24595060+24779686+25020392+25259000
2433.12+25432254+25499256+25467598+25390406+25355798+25445154+25701476+26114664
2440.83+26616010+27100946+27471612+27692996+27780254+27794554+27777224+27748086
2448.55+27723158+27765716+27948298+28297914+28732752+29095056+29240970+29133356
2456.26+28858282+28549474+28307332+28148698+28017486+27853380+27617168+27332466
2463.98+27057054+26875266+26849924+27000428+27298956+27684798+28080776+28399584
2471.69+28558136+28510434+28283480+27986530+27767604+27736782+27912178+28214112
2479.41+28513106+28693158+28699446+28559370+28359840+28189416+28102074+28097394
2487.12+28155974+28269802+28442270+28669134+28904868+29095468+29216484+29288568
2494.84+29341676+29372428+29344542+29238628+29101928+29018802+29057138+29203038
2502.55+29390268+29555154+29688820+29832624+30038854+30331986+30690944+31064686
2510.27+31379378+31580166+31639180+31577540+31451756+31323882+31240718+31215362
2517.98+31241048+31311456+31421526+31560710+31710862+31847942+31980800+32148680
2525.70+32380708+32652826+32877682+32966672+32910922+32802416+32766084+32870264
2533.41+33089640+33344052+33568932+33731360+33817828+33827056+33775936+33710892
2541.13+33681300+33702360+33745772+33785388+33827116+33909780+34054488+34238860
2548.84+34412692+34553604+34690724+34874272+35124932+35415280+35691280+35912416
2556.56+36058840+36113672+36056200+35864500+35579932+35296232+35135788+35160640
2564.27+35343344+35579660+35759004+35832388+35819260+35774452+35739784+35718628
2571.99+35695356+35672512+35691872+35823932+36112600+36525812+36955088+37252672
2579.70+37328604+37202312+36995384+36873320+36956860+37265832+37711184+38150236
2587.42+38446160+38525492+38394528+38130568+37858600+37704016+37728436+37896848
2595.13+38101140+38226056+38236124+38186664+38159584+38198792+38271356+38318584
2602.85+38307544+38267792+38256764+38326364+38480844+38685980+38875928+38986928
2610.56+38976312+38824236+38543808+38179804+37802724+37504204+37364832+37423028
2618.28+37648828+37962444+38257504+38449968+38498884+38422404+38281328+38150812
2625.99+38089116+38108056+38172588+38217700+38187248+38063072+37884436+37728184
2633.71+37653404+37671072+37737300+37801408+37839764+37849844+37828252+37750096
2641.42+37598500+37399620+37230716+37183380+37301512+37550092+37839196+38071324
2649.14+38193692+38218960+38204128+38213368+38271144+38344540+38370232+38292916
2656.85+38107960+37852508+37584828+37345852+37155016+37012716+36913904+36858980
2664.57+36842464+36856764+36866412+36844416+36779788+36699544+36657292+36682140
2672.28+36766500+36871960+36962220+37031812+37103928+37203908+37355804+37573120
2680.00+37852500+38175360+38499080+38777232+38981920+39111468+39191624+39247712
2687.71+39307600+39391984+39519432+39695008+39908164+40121324+40293548+40390180
2695.43+40415444+40413692+40439812+40538136+40700220+40884692+41037064+41129900
2703.14+41178404+41226488+41307080+41429904+41568776+41695396+41817812+41971476
2710.86+42207912+42552056+42975200+43427940+43863392+44259572+44612680+44923980
2718.57+45193036+45433384+45664432+45898864+46133308+46367756+46605596+46870912
2726.29+47173000+47494120+47801724+48074688+48328216+48596544+48903352+49235952
2734.00+49564344+49861460+50131540+50418952+50766000+51198052+51691020+52197564
2741.72+52666912+53072000+53407316+53675400+53869044+53981048+54017752+54010040
2749.43+53996408+54005624+54066452+54205524+54452896+54810268+55238308+55658340
2757.15+55997152+56222580+56351536+56436484+56524820+56657596+56860188+57152496
2764.86+57534116+57961032+58361740+58655384+58798340+58810504+58771036+58784476
2772.58+58934216+59246496+59676040+60132716+60542836+60902192+61279752+61770392
2780.29+62400392+63088040+63671144+64016648+64093196+64018952+63985368+64165692
2788.01+64627300+65318536+66104748+66847392+67476120+68010816+68544280+69163832
2795.72+69902976+70719776+71524376+72248488+72875976+73461968+74086160+74797792
2803.44+75588432+76401624+77174168+77875920+78523416+79162472+79846168+80623752
2811.15+81527096+82559648+83681112+84823584+85925016+86965000+87983032+89045408
2818.87+90202752+91455088+92754440+94030192+95233848+96364536+97451984+98544280
2826.58+99673768+100854952+102084040+103352088+104641648+105948920+107309264
2833.33+108797752+110527424+112617880+115170112+118252504+121914424+126179432
2840.08+131063168+136577616+142750400+149631680+157281520+165746256+175021072
2846.83+185052768+195712928+206810752+218108912+229346368+240248352+250546176
2853.58+259967104+268255472+275198688+280632320+284458048+286646560+287255360
2860.34+286431360+284399296+281426784+277782176+273726592+269516032+265400384
2867.09+261580352+258157344+255116880+252328736+249599152+246713712+243490992
2873.84+239805520+235597264+230855536+225610336+219937392+213973152+207915888
2880.59+201999072+196448992+191447120+187118560+183532336+180718256+178676688
2887.34+177397472+176878880+177109600+178062064+179678096+181884912+184602448
2894.09+187778368+191376592+195386096+199803328+204623840+209821232+215328352
2900.84+221046384+226859680+232662144+238366976+243904352+249226944+254315568
2907.59+259178416+263859376+268418800+272948000+277567872+282422784+287645664
2914.34+293315680+299434720+305946176+312766880+319823936+327059104+334416640
2921.09+341839584+349271712+356656128+363928960+371002688+377769600+384108992
2927.84+389909376+395050304+399376192+402668704+404650208+405037760+403618624
2934.59+400326368+395277760+388750304+381116320+372737504+363907328+354830560
2941.34+345635104+336387968+327065248+317541984+307607808+297053472+285785184
2948.09+273891520+261613536+249287600+237253392+225800640+215135488+205354544
2954.84+196444624+188324048+180894832+174091152+167881104+162218464+157003632
2961.59+152085104+147299904+142522688+137706864+132882840+128134776+123565488
2968.35+119234320+115127192+111171264+107283600+103439880+99688056+96107544
2975.10+92751216+89612776+86657568+83877256+81311104+79015744+77025240+75310536
2982.81+73800144+72401992+71027016+69607832+68124552+66614072+65164896+63881124
2990.53+62831660+62037976+61475012+61086444+60793100+60518392+60218312+59914848
2998.24+59704908+59699736+59967872+60488184+61162132+61855192+62438696+62824592
3005.96+62984048+62961936+62871256+62852108+63011992+63376320+63880356+64418288
3013.67+64902916+65313064+65667340+65998768+66354768+66804788+67422560+68250880
3021.39+69252976+70321736+71336824+72239768+73044904+73813672+74618568+75516808
3029.10+76551720+77725888+78986776+80252992+81479112+82682944+83897592+85103528
3036.82+86212416+87162648+88006816+88928816+90130496+91713976+93634472+95770208
3044.53+98009512+100286136+102562624+104786608+106921032+108955112+110918200
3051.28+112860504+114800792+116722840+118586528+120353864+122004680+123519704
3058.03+124878776+126078384+127144944+128137760+129086712+129953328+130618336
3064.78+130967184+130986976+130809792+130649272+130684456+130974760+131447544
3071.53+131951984+132326520+132473696+132395632+132199160+132025376+131964392
3078.28+131990616+131995896+131868680+131574376+131174960+130761472+130392016
3085.03+130058896+129697608+129222256+128590616+127827488+127040952+126361688
3091.79+125851560+125443968+124959552+124223728+123172136+121900488+120594968
3098.54+119412952+118403488+117502904+116582832+115529008+114281408+112854592
3105.29+111327112+109825088+108489512+107420776+106623000+105988384+105352544
3112.04+104580560+103641816+102603640+101564768+100604320+99777160+99132136
3118.79+98707904+98504416+98448520+98435144+98383496+98280392+98158568+98043560
3126.50+97937056+97843736+97791240+97825072+97967344+98185728+98413048+98588928
3134.22+98689952+98746320+98814600+98971760+99283328+99782464+100438184
3140.97+101168400+101871032+102470768+102943320+103302280+103577408+103800624
3147.72+104010240+104254320+104589512+105070272+105728576+106564048+107553752
3154.47+108625360+109691592+110673192+111531816+112312560+113113008+114034544
3161.22+115129288+116381072+117739248+119153552+120622736+122166896+123788200
3167.97+125442752+127054560+128556536+129944384+131261976+132583656+133962024
3174.72+135421424+136958512+138536144+140074768+141491776+142744320+143870400
3181.47+144971808+146136336+147390128+148678368+149917184+151055504+152101472
3188.22+153103440+154109408+155136528+156170208+157209200+158286048+159458320
3194.97+160763328+162150096+163483504+164598656+165415600+166005120+166527680
3201.72+167141328+167914768+168824016+169800800+170807376+171845888+172940832
3208.47+174103440+175295040+176443376+177471104+178342400+179101120+179873680
3215.23+180815824+182019712+183457488+185006624+186529392+187967648+189360960
3221.98+190795472+192356544+194077424+195969888+198018528+200175184+202341568
3228.73+204402832+206298064+208071536+209844608+211762880+213927168+216389600
3235.48+219165200+222238736+225548288+228969840+232368816+235634112+238736080
3242.23+241710992+244624176+247545536+250561920+253767392+257241392+261004240
3248.98+264977696+269031392+273028512+276886592+280618560+284313632+288096672
3255.73+292067520+296256608+300622816+305082816+309584224+314121792+318729024
3262.48+323410784+328115936+332736288+337155104+341311296+345242656+349092032
3269.23+353059104+357318176+361948480+366923296+372153632+377542688+383028032
3275.98+388576128+394184480+399872768+405683392+411637568+417709760+423844704
3282.73+430005504+436233280+442624672+449257920+456113984+463065888+469923392
3289.48+476527680+482780736+488631552+494037024+498919424+503182688+506722400
3296.23+509455040+511290752+512141824+511921312+510555936+508015488+504322112
3302.98+499549664+493794848+487124864+479519328+470901120+461210880+450509408
3309.73+439004384+426980160+414721376+402454368+390364960+378597824+367221632
3316.48+356216768+345490880+334969280+324647072+314600992+304948096+295781216
3323.24+287150880+279068992+271526816+264490256+257873536+251555936+245431152
3329.99+239456624+233677056+228170752+222984224+218099072+213444240+208935840
3336.74+204534816+200275040+196225632+192452576+188966176+185731568+182691216
3343.49+179803568+177053792+174410400+171812704+169175600+166431808+163585680
3350.24+160725328+157997328+155550192+153483472+151796816+150372624+149039920
3356.99+147643280+146127088+144535520+142964000+141490752+140123456+138818848
3363.74+137537104+136271872+135059424+133927904+132862792+131803384+130696768
3370.49+129552336+128422176+127364752+126393688+125472248+124559912+123639576
3377.24+122743256+121929776+121266072+120781480+120447848+120172640+119829664
3383.99+119317480+118619064+117802704+117002192+116357288+115942088+115722872
3390.74+115564176+115298544+114844648+114260032+113690776+113239552+112897800
3397.49+112595240+112270120+111928848+111610576+111335320+111090744+110843600
3404.24+110582864+110316608+110059712+109811344+109549368+109249536+108898640
3410.99+108497960+108069656+107630312+107179936+106749176+106418824+106302488
3417.74+106463952+106830056+107154056+107133864+106598880+105651712+104592416
3424.49+103708912+103115936+102747520+102475216+102229712+102029688+101911744
3431.25+101843544+101734096+101514976+101195544+100868464+100614944+100464712
3438.00+100404616+100410384+100449728+100480584+100450216+100340800+100187192
3444.75+100033584+99846400+99475632+98745392+97626480+96315736+95130536
3451.50+94324752+93978936+93980896+94100896+94150840+94073392+93952224+93902360
3459.21+93957416+94026032+93951144+93617664+93037944+92339832+91661752+91081784
3466.93+90616472+90268304+90060632+90017608+90113784+90254536+90318040+90227504
3474.64+89995624+89716248+89519640+89509720+89699256+89985528+90177192+90093024
3482.36+89682952+89067120+88420784+87841128+87302248+86727776+86085936+85422064
3490.07+84838872+84424456+84221232+84199048+84257000+84248808+84044304+83642680
3497.79+83199528+82956488+83089472+83574296+84123624+84284184+83726520+82529264
3505.50+81119032+79926896+79119640+78597576+78112848+77473952+76647080+75726320
3513.22+74824736+74007088+73302560+72736944+72332208+72108640+72079752+72248096
3520.93+72588704+73010600+73383408+73564480+73478024+73127424+72545328+71740264
3528.65+70712720+69493264+68172928+66890912+65784196+64937656+64327528+63796512
3536.36+63109148+62148416+61050508+60152600+59790052+60129644+61106412+62435756
3544.08+63652068+64215872+63774068+62429532+60716828+59183656+58082872+57293916
3551.79+56480140+55321120+53784944+52163028+50851588+50123804+50038124+50461212
3559.51+51151384+51905328+52685948+53645180+54984448+56701452+58330592+58837776
3567.22+57263716+53920892+50202964+47186532+45108016+43772700+42914640+42332264
3574.94+41913000+41623104+41456664+41397660+41421232+41524852+41757400+42221688
3582.65+43043344+44332916+46129436+48252396+50085336+50727756+49885740+48405740
3590.37+47416016+47453080+48426712+49833224+50977608+51341216+50933644+50184840
3598.08+49457632+48720804+47651784+46023084+44046656+42311792+41389116+41515064
3605.80+42494592+43738040+44446448+44126972+42988320+41675876+40657264+39977432
3613.51+39477920+39087516+38921156+39130020+39703180+40358092+40657980+40403552
3621.23+39884644+39584772+39836180+40782572+42438544+44674364+47031464+48438832
3628.94+47588756+44535608+40873860+37720100+35099732+32705866+30379280+28187600
3636.66+26289576+24795506+23691658+22875344+22213728+21652560+21287586+21364066
3644.37+22199988+24093966+27226748+31349722+34982724+35292468+31357742+26082700
3652.09+22050708+19713960+18600478+18076996+17539286+16621333+15378696+14135029
3659.80+13100497+12266627+11559518+11009751+10801805+11201533+12420020+14531122
3667.52+17403406+20545194+22982600+23843022+23472922+23123846+23671278+25111656
3675.23+26532568+26564534+24826000+22207454+19545830+17169374+15218797+13882098
3682.95+13366573+13820120+15293278+17778284+21206914+25291458+29172348+31397690
3690.66+31165548+29296002+27099542+25309268+24123162+23515710+23380052+23574166
3698.38+23977082+24511938+25100202+25610772+25885202+25907500+25894496+26184064
3706.09+27073382+28755622+31240624+34127844+36223752+35628284+31439170+25414438
3713.81+20200210+17036386+15947867+16604646+18662982+21786856+25600774+29710220
3721.52+33764008+37489708+40654360+42981276+44179772+44207136+43437012+42511976
3729.24+41997276+42241120+43350580+45200088+47276408+48569180+47922928+45096340
3736.95+41137200+37280912+34089308+31585874+29616828+28043010+26816252+26023750
3744.67+25859492+26420060+27637540+29418110+31608696+33572400+33793244+30958648
3752.38+26048372+21307848+17907152+15903055+14919291+14459580+13994456+13158598
3760.10+12002475+10949269+10360293+10328507+10712592+11276149+11786078+12105662
3767.81+12140948+11748957+10751988+9187626+7404455+5851325+4809574+4375708
3775.53+4541121+5250670+6317247+7379368+8003710+8019588+7694356+7438274+7450387
3784.21+7620467+7668614+7399132+6849350+6223362+5692527+5348145+5220763+5356863
3792.89+5842342+6764003+8149662+9904037+11821518+13713520+15529674+17212862
3800.60+18387364+18411222+17126654+15280199+13677477+12548529+11644487+10621091
3808.32+9400022+8242862+7470543+7293262+7820338+9115627+11164465+13751935
3816.03+16372666+18520128+20103222+21346170+22199676+22129066+20766196+18667042
3823.75+16697322+15218505+14119547+13171306+12249611+11405182+10790569+10581351
3831.46+10935094+11950416+13594881+15731773+18165138+20669864+22865578+24147604
3839.18+23985838+22426990+19983222+17184938+14398694+11933868+10106146+9178608
3846.89+9292137+10458921+12591017+15537456+19062152+22626824+24905818+24126654
3854.61+20499814+16363900+13196898+11211692+10307923+10404701+11430781+13186570
3862.32+15214575+16768251+17186882+16552920+15679089+15363607+15903380+17031766
3870.04+18033620+18173280+17251424+15566686+13501202+11399024+9613050+8428367
3877.75+7969947+8230513+9081081+10314810+11674510+12954388+13948082+14354795
3885.47+13940008+12897998+11871657+11434393+11740348+12496148+13049093+12758915
3893.18+11596369+10200166+9233325+9041786+9708866+11179475+13270057+15663652
3900.90+17940162+19620626+20163202+19123220+16560979+13207221+9968239+7408542
3908.61+5680680+4719952+4375708+4502832+5027363+5912537+7118686+8521964+9841710
3917.29+10695636+10852210+10443405+9882918+9548758+9559479+9731950+9735132
3925.00+9378353+8843929+8592776+8996098+10081247+11473793+12498117+12525610
3932.72+11426742+9684780+7985982+6775989+6162607+6051025+6296708+6778227
3940.43+7386705+7973870+8365842+8472087+8394825+8357779+8501313+8763421+8916601
3949.11+8742542+8198962+7441347+6684237+6067517+5650619+5441049+5424961+5549589
3957.79+5749187+5949627+6093531+6135660+6054652+5877733+5681975+5545277+5508246
3966.47+5554559+5652805+5790417+5990023+6276334+6640559+7003971+7237538+7223119
3975.15+6924280+6425659+5896497+5486311+5248267+5146331+5123131+5142640+5177223
3983.83+5173281+5062133+4831647+4558032+4375708+4369222+4567906+4883437+5181812
3992.51+5359592+5351009+5156063+4842618+4536719+4375708+4375708
##END=
